Date,Open,High,Low,Close,Adj Close,Volume
2023-10-26,13.859999656677246,14.140000343322754,13.100000381469727,13.539999961853027,13.539999961853027,96753
2023-10-27,13.739999771118164,14.09000015258789,13.5600004196167,13.770000457763672,13.770000457763672,6077
2023-10-30,13.800000190734863,14.140000343322754,13.609999656677246,13.729999542236328,13.729999542236328,9369
2023-10-31,14.359999656677246,14.359999656677246,13.609999656677246,13.680000305175781,13.680000305175781,199
2023-11-01,13.949999809265137,14.100000381469727,13.710000038146973,13.75,13.75,25903
2023-11-02,14.039999961853027,14.239999771118164,13.869999885559082,14.039999961853027,14.039999961853027,326
2023-11-03,14.140000343322754,14.390000343322754,14,14,14,26944
2023-11-06,14.279999732971191,14.739999771118164,14.069999694824219,14.479999542236328,14.479999542236328,10603
2023-11-07,14.210000038146973,14.739999771118164,14.210000038146973,14.569999694824219,14.569999694824219,6259
2023-11-08,14.880000114440918,15.09000015258789,14.449999809265137,14.770000457763672,14.770000457763672,25278
2023-11-09,14.710000038146973,15.09000015258789,14.5600004196167,14.630000114440918,14.630000114440918,1739
2023-11-10,14.449999809265137,16,14.40999984741211,15.640000343322754,15.640000343322754,90618
2023-11-13,15.979999542236328,15.979999542236328,15.239999771118164,15.34000015258789,15.34000015258789,38115
2023-11-15,15.550000190734863,15.789999961853027,15.210000038146973,15.430000305175781,15.430000305175781,5290
2023-11-16,15.140000343322754,15.4399995803833,15.050000190734863,15.220000267028809,15.220000267028809,11815
2023-11-17,15,15.640000343322754,14.949999809265137,15.520000457763672,15.520000457763672,13991
2023-11-20,15.75,17.450000762939453,15.449999809265137,16.950000762939453,16.950000762939453,235422
2023-11-21,17.989999771118164,18.049999237060547,17.350000381469727,17.920000076293945,17.920000076293945,228527
2023-11-22,18.149999618530273,18.149999618530273,16.65999984741211,16.860000610351562,16.860000610351562,35073
2023-11-23,16.860000610351562,17.190000534057617,16.5,16.670000076293945,16.670000076293945,48757
2023-11-24,17,17.290000915527344,16.829999923706055,17.010000228881836,17.010000228881836,18703
2023-11-28,17.979999542236328,17.979999542236328,16.56999969482422,16.8700008392334,16.8700008392334,41799
2023-11-29,17.18000030517578,17.18000030517578,16.510000228881836,16.600000381469727,16.600000381469727,27505
2023-11-30,16.889999389648438,16.889999389648438,15.850000381469727,15.979999542236328,15.979999542236328,41905
2023-12-01,16.239999771118164,16.5,15.949999809265137,16.200000762939453,16.200000762939453,33032
2023-12-04,16.450000762939453,16.450000762939453,16.100000381469727,16.200000762939453,16.200000762939453,18513
2023-12-05,16.010000228881836,16.260000228881836,15.75,16.030000686645508,16.030000686645508,63008
2023-12-06,16.040000915527344,17.510000228881836,16.040000915527344,17,17,63621
2023-12-07,17,17.600000381469727,16.649999618530273,17.149999618530273,17.149999618530273,56783
2023-12-08,17.489999771118164,17.489999771118164,16.700000762939453,16.709999084472656,16.709999084472656,31657
2023-12-11,17.09000015258789,17.09000015258789,16.440000534057617,16.520000457763672,16.520000457763672,11537
2023-12-12,16.190000534057617,16.940000534057617,16.190000534057617,16.450000762939453,16.450000762939453,10515
2023-12-13,16.1200008392334,16.649999618530273,14.220000267028809,16.43000030517578,16.43000030517578,51311
2023-12-14,16.790000915527344,16.790000915527344,16.18000030517578,16.309999465942383,16.309999465942383,25056
2023-12-15,16.610000610351562,16.75,16.149999618530273,16.25,16.25,5898
2023-12-18,16.59000015258789,19.5,16.049999237060547,18.950000762939453,18.950000762939453,344051
2023-12-19,18.959999084472656,19.81999969482422,18.299999237060547,18.90999984741211,18.90999984741211,292529
2023-12-20,18.90999984741211,19.770000457763672,17.8700008392334,18.3700008392334,18.3700008392334,65416
2023-12-21,18.43000030517578,19.329999923706055,17.899999618530273,18.84000015258789,18.84000015258789,64921
2023-12-22,19.329999923706055,19.5,18.15999984741211,18.389999389648438,18.389999389648438,21707
2023-12-26,18.760000228881836,18.780000686645508,17.729999542236328,18.25,18.25,25390
2023-12-27,18.5,18.6299991607666,17.309999465942383,17.530000686645508,17.530000686645508,36863
2023-12-28,17.799999237060547,17.799999237060547,16.549999237060547,16.690000534057617,16.690000534057617,190549
2023-12-29,16.399999618530273,17.770000457763672,16.399999618530273,17.520000457763672,17.520000457763672,38994
2024-01-01,17.989999771118164,19.079999923706055,17.479999542236328,18.34000015258789,18.34000015258789,110192
2024-01-02,18.719999313354492,20.75,18.5,20.25,20.25,404397
2024-01-03,20.639999389648438,20.729999542236328,19.6299991607666,19.760000228881836,19.760000228881836,91699
2024-01-04,20.15999984741211,20.299999237060547,19.450000762939453,19.549999237060547,19.549999237060547,58867
2024-01-05,19.950000762939453,19.950000762939453,16.209999084472656,19.229999542236328,19.229999542236328,237560
2024-01-08,19.5,20.09000015258789,19.31999969482422,19.68000030517578,19.68000030517578,31670
2024-01-09,20.100000381469727,20.700000762939453,19.239999771118164,20.329999923706055,20.329999923706055,97232
2024-01-10,20,20.299999237060547,19.760000228881836,19.899999618530273,19.899999618530273,28038
2024-01-11,20.299999237060547,20.299999237060547,19.450000762939453,19.709999084472656,19.709999084472656,4456
2024-01-12,19.93000030517578,20.190000534057617,19.229999542236328,19.329999923706055,19.329999923706055,73439
2024-01-15,19.110000610351562,20.5,19.110000610351562,19.920000076293945,19.920000076293945,51201
2024-01-16,20.829999923706055,20.829999923706055,19.1200008392334,19.540000915527344,19.540000915527344,56162
2024-01-17,19.93000030517578,19.93000030517578,19.030000686645508,19.049999237060547,19.049999237060547,14391
2024-01-18,,,,,,
2024-01-19,19.530000686645508,20.34000015258789,19.18000030517578,19.90999984741211,19.90999984741211,16644
2024-01-23,19.850000381469727,19.850000381469727,17.90999984741211,18.190000534057617,18.190000534057617,7254
2024-01-24,18.549999237060547,18.549999237060547,17.739999771118164,17.979999542236328,17.979999542236328,25166
2024-01-25,17.799999237060547,18.920000076293945,17.799999237060547,18.530000686645508,18.530000686645508,60627
2024-01-29,19.190000534057617,19.399999618530273,18.389999389648438,18.639999389648438,18.639999389648438,30775
2024-01-30,18.639999389648438,19.920000076293945,18.3700008392334,19.229999542236328,19.229999542236328,80940
2024-01-31,19.600000381469727,19.729999542236328,18.860000610351562,18.969999313354492,18.969999313354492,32675
2024-02-01,18.969999313354492,19.329999923706055,18.399999618530273,18.690000534057617,18.690000534057617,63995
2024-02-02,18.809999465942383,19.059999465942383,18.40999984741211,18.479999542236328,18.479999542236328,59812
2024-02-05,18.600000381469727,18.639999389648438,18.030000686645508,18.100000381469727,18.100000381469727,24840
2024-02-06,17.739999771118164,21.719999313354492,17.739999771118164,21.719999313354492,21.719999313354492,283854
2024-02-07,21.729999542236328,24.3799991607666,20.850000381469727,22.969999313354492,22.969999313354492,470903
2024-02-08,23.729999542236328,23.729999542236328,22.43000030517578,23.020000457763672,23.020000457763672,77650
2024-02-09,24.260000228881836,24.260000228881836,21.030000686645508,21.940000534057617,21.940000534057617,64211
2024-02-12,22.3799991607666,22.43000030517578,19.3700008392334,20,20,36976
2024-02-13,19.649999618530273,20.1200008392334,18.690000534057617,19.219999313354492,19.219999313354492,58301
2024-02-14,19.700000762939453,20.3700008392334,19.229999542236328,20.15999984741211,20.15999984741211,12432
2024-02-15,21.989999771118164,21.989999771118164,20.469999313354492,20.719999313354492,20.719999313354492,37904
2024-02-16,21.010000228881836,21.6200008392334,20.889999389648438,21.18000030517578,21.18000030517578,44295
2024-02-19,21.75,21.75,20.6200008392334,20.670000076293945,20.670000076293945,77453
2024-02-20,20.6200008392334,21.1200008392334,20.219999313354492,20.329999923706055,20.329999923706055,13930
2024-02-21,20.329999923706055,20.950000762939453,19.530000686645508,19.75,19.75,48581
2024-02-22,19.799999237060547,20.780000686645508,19.170000076293945,20.399999618530273,20.399999618530273,72634
2024-02-23,20.020000457763672,20.68000030517578,19.8700008392334,19.979999542236328,19.979999542236328,40687
2024-02-26,19.90999984741211,20.030000686645508,19.06999969482422,19.309999465942383,19.309999465942383,32662
2024-02-27,19.31999969482422,19.84000015258789,18.670000076293945,18.940000534057617,18.940000534057617,53805
2024-02-28,18.899999618530273,19.219999313354492,17.93000030517578,18.31999969482422,18.31999969482422,62103
2024-02-29,17.959999084472656,18.649999618530273,17.950000762939453,18.329999923706055,18.329999923706055,28737
2024-03-01,18.360000610351562,19.31999969482422,18.360000610351562,19.18000030517578,19.18000030517578,24691
2024-03-04,18.84000015258789,20.399999618530273,18.670000076293945,19.559999465942383,19.559999465942383,178848
2024-03-05,20.350000381469727,20.75,19.170000076293945,19.350000381469727,19.350000381469727,116260
2024-03-06,19,19.40999984741211,18.5,18.8700008392334,18.8700008392334,52321
2024-03-07,18.020000457763672,19.170000076293945,18.020000457763672,18.770000457763672,18.770000457763672,33369
2024-03-11,18.25,18.93000030517578,18.049999237060547,18.209999084472656,18.209999084472656,43444
2024-03-12,18.540000915527344,18.540000915527344,16.600000381469727,16.799999237060547,16.799999237060547,61603
2024-03-13,16.149999618530273,16.850000381469727,15.25,15.430000305175781,15.430000305175781,17977
2024-03-14,14.899999618530273,16.1299991607666,14.850000381469727,15.84000015258789,15.84000015258789,25677
2024-03-15,15.8100004196167,16.350000381469727,15.520000457763672,15.920000076293945,15.920000076293945,30379
2024-03-18,15.609999656677246,16.200000762939453,15.609999656677246,15.9399995803833,15.9399995803833,15600
2024-03-19,15.109999656677246,16,15.109999656677246,15.399999618530273,15.399999618530273,20982
2024-03-20,15.710000038146973,15.710000038146973,14.600000381469727,14.739999771118164,14.739999771118164,40828
2024-03-21,14.800000190734863,16.450000762939453,14.800000190734863,16.139999389648438,16.139999389648438,44585
2024-03-22,15.800000190734863,16.280000686645508,15.600000381469727,15.899999618530273,15.899999618530273,49805
2024-03-26,16.200000762939453,16.200000762939453,15.430000305175781,15.550000190734863,15.550000190734863,25665
2024-03-27,15.630000114440918,15.630000114440918,14.699999809265137,14.890000343322754,14.890000343322754,47009
2024-03-28,15.25,15.390000343322754,14.550000190734863,14.6899995803833,14.6899995803833,34971
2024-04-01,14.399999618530273,16.229999542236328,14.399999618530273,16.1200008392334,16.1200008392334,54573
2024-04-02,15.880000114440918,16.75,15.800000190734863,16.579999923706055,16.579999923706055,43284
2024-04-03,15.609999656677246,17.5,15.609999656677246,17.329999923706055,17.329999923706055,15006
2024-04-04,17.3700008392334,20,17.139999389648438,19.540000915527344,19.540000915527344,210907
2024-04-05,19.93000030517578,21.200000762939453,18.809999465942383,20.8799991607666,20.8799991607666,132652
2024-04-08,20.850000381469727,21.5,19.510000228881836,19.799999237060547,19.799999237060547,139808
2024-04-09,19.549999237060547,20.290000915527344,19.450000762939453,19.520000457763672,19.520000457763672,79229
2024-04-10,19.940000534057617,20,19.219999313354492,19.3700008392334,19.3700008392334,22763
2024-04-12,19.020000457763672,19.540000915527344,18.299999237060547,18.889999389648438,18.889999389648438,71919
2024-04-15,18.489999771118164,19.18000030517578,17.350000381469727,19.06999969482422,19.06999969482422,45432
2024-04-16,18.399999618530273,20.969999313354492,18.399999618530273,20.969999313354492,20.969999313354492,94475
2024-04-18,21.899999618530273,23.059999465942383,21.389999389648438,22.200000762939453,22.200000762939453,183251
2024-04-19,21.760000228881836,22.200000762939453,21.010000228881836,22.049999237060547,22.049999237060547,51768
2024-04-22,22.899999618530273,23.030000686645508,21.65999984741211,22.399999618530273,22.399999618530273,43208
2024-04-23,22.850000381469727,22.850000381469727,21.899999618530273,22.049999237060547,22.049999237060547,17249
2024-04-24,22.100000381469727,22.40999984741211,21.93000030517578,21.950000762939453,21.950000762939453,26050
2024-04-25,22.010000228881836,22.010000228881836,21.25,21.3799991607666,21.3799991607666,13768
2024-04-26,21.799999237060547,21.84000015258789,21.360000610351562,21.59000015258789,21.59000015258789,13601
2024-04-29,21.600000381469727,21.799999237060547,21.40999984741211,21.600000381469727,21.600000381469727,7218
2024-04-30,22.3799991607666,22.3799991607666,21.850000381469727,22.010000228881836,22.010000228881836,19787
2024-05-02,22,23.450000762939453,21.700000762939453,22.84000015258789,22.84000015258789,127089
2024-05-03,22.770000457763672,23.100000381469727,22.43000030517578,22.6299991607666,22.6299991607666,11152
2024-05-06,22.729999542236328,22.809999465942383,22,22.309999465942383,22.309999465942383,60727
2024-05-07,22.899999618530273,22.899999618530273,21.809999465942383,22.219999313354492,22.219999313354492,31725
2024-05-08,22.450000762939453,22.600000381469727,21.950000762939453,22.010000228881836,22.010000228881836,30377
2024-05-09,21.600000381469727,22.100000381469727,20.459999084472656,20.889999389648438,20.889999389648438,14308
2024-05-10,20.459999084472656,20.829999923706055,20.15999984741211,20.610000610351562,20.610000610351562,7656
2024-05-13,20.700000762939453,20.700000762939453,19.600000381469727,20.219999313354492,20.219999313354492,79719
2024-05-14,20,22,19.43000030517578,21.639999389648438,21.639999389648438,24896
2024-05-15,22.889999389648438,22.889999389648438,21.110000610351562,21.489999771118164,21.489999771118164,22606
2024-05-16,21.540000915527344,21.850000381469727,21,21.020000457763672,21.020000457763672,10646
2024-05-17,20.510000228881836,21.979999542236328,20.510000228881836,21.3799991607666,21.3799991607666,11881
2024-05-21,21.139999389648438,21.530000686645508,20.5,21.049999237060547,21.049999237060547,69587
2024-05-22,20.920000076293945,21.200000762939453,20.799999237060547,21.079999923706055,21.079999923706055,58574
2024-05-23,21.079999923706055,21.290000915527344,20.600000381469727,20.729999542236328,20.729999542236328,18558
2024-05-24,20.969999313354492,20.969999313354492,20.469999313354492,20.510000228881836,20.510000228881836,17790
2024-05-27,20.920000076293945,20.920000076293945,20.149999618530273,20.149999618530273,20.149999618530273,1193
2024-05-28,20.229999542236328,20.229999542236328,19.81999969482422,19.940000534057617,19.940000534057617,5398
2024-05-29,19.5,21,19.5,20.639999389648438,20.639999389648438,26649
2024-05-30,20.899999618530273,20.899999618530273,19.90999984741211,19.969999313354492,19.969999313354492,5769
2024-05-31,20.06999969482422,20.06999969482422,19.600000381469727,19.709999084472656,19.709999084472656,8785
2024-06-03,19.600000381469727,20.079999923706055,19.600000381469727,19.75,19.75,66433
2024-06-04,19.860000610351562,20.149999618530273,18,18.510000228881836,18.510000228881836,10548
2024-06-05,19,19.139999389648438,17.43000030517578,18.209999084472656,18.209999084472656,14019
2024-06-06,18.56999969482422,19.43000030517578,18.40999984741211,19.43000030517578,19.43000030517578,21356
2024-06-07,19.81999969482422,21.25,19.440000534057617,19.950000762939453,19.950000762939453,29314
2024-06-10,19.020000457763672,20.399999618530273,19.020000457763672,20.3799991607666,20.3799991607666,3595
2024-06-11,21,21,19.899999618530273,20.209999084472656,20.209999084472656,44062
2024-06-12,20.25,20.479999542236328,20,20.1200008392334,20.1200008392334,69345
2024-06-13,20.1200008392334,20.1200008392334,19.81999969482422,19.940000534057617,19.940000534057617,7839
2024-06-14,19.90999984741211,20.799999237060547,19.8700008392334,19.969999313354492,19.969999313354492,42858
2024-06-18,19.610000610351562,20.489999771118164,19.610000610351562,19.829999923706055,19.829999923706055,23285
2024-06-19,20.190000534057617,20.190000534057617,19.079999923706055,19.110000610351562,19.110000610351562,23104
2024-06-20,19.110000610351562,19.40999984741211,19.06999969482422,19.100000381469727,19.100000381469727,9739
2024-06-21,19.450000762939453,19.5,19,19.440000534057617,19.440000534057617,35134
2024-06-24,19.010000228881836,20.100000381469727,19.010000228881836,19.3700008392334,19.3700008392334,31323
2024-06-25,19.280000686645508,19.84000015258789,19.209999084472656,19.360000610351562,19.360000610351562,20028
2024-06-26,19.520000457763672,19.700000762939453,19.170000076293945,19.3700008392334,19.3700008392334,69408
2024-06-27,19.3700008392334,19.68000030517578,18.979999542236328,19.579999923706055,19.579999923706055,7749
2024-06-28,19.06999969482422,19.75,19.06999969482422,19.610000610351562,19.610000610351562,9558
2024-07-01,19.899999618530273,20.709999084472656,19.709999084472656,20.540000915527344,20.540000915527344,40745
2024-07-02,20.93000030517578,21.700000762939453,19.90999984741211,21.09000015258789,21.09000015258789,108625
2024-07-03,21.09000015258789,21.700000762939453,20.850000381469727,20.950000762939453,20.950000762939453,12591
2024-07-04,20.610000610351562,20.989999771118164,20.18000030517578,20.25,20.25,9715
2024-07-05,20.579999923706055,21.450000762939453,19.780000686645508,20.729999542236328,20.729999542236328,21315
2024-07-08,21.139999389648438,21.649999618530273,20,21,21,22987
2024-07-09,20.510000228881836,21.739999771118164,20.510000228881836,20.969999313354492,20.969999313354492,29833
2024-07-10,20.969999313354492,21.079999923706055,20.299999237060547,20.530000686645508,20.530000686645508,27629
2024-07-11,21,21,20.329999923706055,20.3700008392334,20.3700008392334,2983
2024-07-12,20.489999771118164,21.18000030517578,20.350000381469727,20.979999542236328,20.979999542236328,27992
2024-07-15,21.399999618530273,21.399999618530273,20.6299991607666,20.639999389648438,20.639999389648438,2379
2024-07-16,20.5,20.729999542236328,20.100000381469727,20.270000457763672,20.270000457763672,2627
2024-07-18,20.100000381469727,21.100000381469727,19.8700008392334,20.3799991607666,20.3799991607666,7148
2024-07-19,20.68000030517578,20.68000030517578,19.709999084472656,20.15999984741211,20.15999984741211,6686
2024-07-22,20.790000915527344,20.790000915527344,19.799999237060547,19.850000381469727,19.850000381469727,6045
2024-07-23,19.559999465942383,20.09000015258789,19,19.600000381469727,19.600000381469727,18082
2024-07-24,19.899999618530273,21.559999465942383,19.600000381469727,21.559999465942383,21.559999465942383,79879
2024-07-25,21.559999465942383,23.219999313354492,21.239999771118164,21.780000686645508,21.780000686645508,74074
2024-07-26,22.200000762939453,22.200000762939453,21.200000762939453,21.270000457763672,21.270000457763672,20218
2024-07-29,20.84000015258789,21.360000610351562,20.729999542236328,20.969999313354492,20.969999313354492,14703
2024-07-30,20.549999237060547,21.489999771118164,20.549999237060547,21.18000030517578,21.18000030517578,27244
2024-07-31,21.59000015258789,21.59000015258789,20.6200008392334,20.790000915527344,20.790000915527344,23607
2024-08-01,21.540000915527344,21.540000915527344,20.389999389648438,20.530000686645508,20.530000686645508,3576
2024-08-02,20.610000610351562,21.030000686645508,19.700000762939453,20.829999923706055,20.829999923706055,19378
2024-08-05,20.40999984741211,20.40999984741211,19.399999618530273,19.940000534057617,19.940000534057617,79789
2024-08-06,19.450000762939453,20.229999542236328,19.200000762939453,19.459999084472656,19.459999084472656,12535
2024-08-07,19.799999237060547,21.200000762939453,19,20.280000686645508,20.280000686645508,64388
2024-08-08,20.690000534057617,20.799999237060547,20.049999237060547,20.06999969482422,20.06999969482422,5954
2024-08-09,20.440000534057617,22.799999237060547,20.440000534057617,21.809999465942383,21.809999465942383,162874
2024-08-12,22.049999237060547,22.25,21.360000610351562,21.3700008392334,21.3700008392334,24911
2024-08-13,21.790000915527344,21.790000915527344,20.209999084472656,20.260000228881836,20.260000228881836,7708
2024-08-14,20.65999984741211,20.65999984741211,19.889999389648438,19.950000762939453,19.950000762939453,6098
2024-08-16,20.350000381469727,20.450000762939453,19.969999313354492,20.190000534057617,20.190000534057617,3882
2024-08-19,20.799999237060547,22.739999771118164,20.1299991607666,22.31999969482422,22.31999969482422,64758
2024-08-20,24.899999618530273,25.25,21.989999771118164,23.420000076293945,23.420000076293945,181924
2024-08-21,24,24.68000030517578,22.8799991607666,23.09000015258789,23.09000015258789,23607
2024-08-22,23.549999237060547,23.700000762939453,22.469999313354492,22.549999237060547,22.549999237060547,74860
2024-08-23,22.799999237060547,23.299999237060547,22.110000610351562,22.190000534057617,22.190000534057617,8478
2024-08-26,21.850000381469727,23.079999923706055,21.850000381469727,22.600000381469727,22.600000381469727,12929
2024-08-27,,,,,,
2024-08-28,21.8799991607666,21.889999389648438,20.850000381469727,20.90999984741211,20.90999984741211,49194
2024-08-29,21.329999923706055,21.329999923706055,20.75,20.81999969482422,20.81999969482422,8285
2024-08-30,20.709999084472656,21.25,20.420000076293945,21.020000457763672,21.020000457763672,24937
2024-09-02,21.5,22.540000915527344,20.670000076293945,22.229999542236328,22.229999542236328,76482
2024-09-03,22.670000076293945,22.75,21.950000762939453,22.59000015258789,22.59000015258789,37338
2024-09-04,21.549999237060547,22.40999984741211,21.549999237060547,21.989999771118164,21.989999771118164,28947
2024-09-05,21.899999618530273,22.600000381469727,21.899999618530273,22,22,23869
2024-09-06,22,22.399999618530273,21.5,21.90999984741211,21.90999984741211,33153
2024-09-09,22.350000381469727,22.420000076293945,21.520000457763672,21.760000228881836,21.760000228881836,36077
2024-09-10,22.200000762939453,22.290000915527344,21.920000076293945,21.940000534057617,21.940000534057617,1431
2024-09-11,21.510000228881836,22.440000534057617,21.510000228881836,22.059999465942383,22.059999465942383,33625
2024-09-12,21.899999618530273,22.3700008392334,21,21.530000686645508,21.530000686645508,29660
2024-09-13,21.600000381469727,22.489999771118164,21.600000381469727,21.950000762939453,21.950000762939453,60087
2024-09-16,22.3799991607666,22.399999618530273,21.780000686645508,21.799999237060547,21.799999237060547,5870
2024-09-17,21.81999969482422,21.920000076293945,21.520000457763672,21.799999237060547,21.799999237060547,7018
2024-09-18,21.31999969482422,21.8700008392334,20.850000381469727,21.06999969482422,21.06999969482422,25293
2024-09-19,21.43000030517578,21.43000030517578,20.450000762939453,20.489999771118164,20.489999771118164,20077
2024-09-20,20.899999618530273,21.350000381469727,20.719999313354492,21.100000381469727,21.100000381469727,1383
2024-09-23,21.479999542236328,21.479999542236328,20.719999313354492,20.84000015258789,20.84000015258789,11153
2024-09-24,20.520000457763672,21.280000686645508,20.520000457763672,20.899999618530273,20.899999618530273,19295
2024-09-25,21.31999969482422,21.31999969482422,20,20.049999237060547,20.049999237060547,33860
2024-09-26,20.350000381469727,20.399999618530273,19.940000534057617,20.260000228881836,20.260000228881836,13957
2024-09-27,21.200000762939453,21.200000762939453,20,20.110000610351562,20.110000610351562,21825
2024-09-30,20.5,20.59000015258789,20,20.110000610351562,20.110000610351562,20602
2024-10-01,20.010000228881836,20.989999771118164,20.010000228881836,20.829999923706055,20.829999923706055,11829
2024-10-03,20.829999923706055,20.829999923706055,19.899999618530273,20.170000076293945,20.170000076293945,17273
2024-10-04,20.56999969482422,20.56999969482422,19.520000457763672,19.649999618530273,19.649999618530273,21258
2024-10-07,19.40999984741211,19.649999618530273,18.649999618530273,18.93000030517578,18.93000030517578,31988
2024-10-08,18.25,19.690000534057617,18.25,19.309999465942383,19.309999465942383,11266
2024-10-09,19.670000076293945,20.649999618530273,19.15999984741211,20.059999465942383,20.059999465942383,36853
2024-10-10,20.989999771118164,20.989999771118164,20.15999984741211,20.350000381469727,20.350000381469727,3572
2024-10-11,20.440000534057617,20.5,19.850000381469727,19.979999542236328,19.979999542236328,4966
2024-10-14,19.920000076293945,20.139999389648438,19.65999984741211,19.770000457763672,19.770000457763672,9305
2024-10-15,19.540000915527344,19.790000915527344,19.5,19.56999969482422,19.56999969482422,1558
2024-10-16,19.329999923706055,19.709999084472656,19.06999969482422,19.489999771118164,19.489999771118164,8084
2024-10-17,19.280000686645508,19.299999237060547,18.799999237060547,18.950000762939453,18.950000762939453,18101
2024-10-18,18.780000686645508,19.200000762939453,18.559999465942383,19.09000015258789,19.09000015258789,16969
2024-10-21,19.43000030517578,19.56999969482422,18.649999618530273,18.770000457763672,18.770000457763672,10970
2024-10-22,19.299999237060547,19.299999237060547,18.010000228881836,18.020000457763672,18.020000457763672,15617
2024-10-23,18.40999984741211,18.40999984741211,17.100000381469727,17.350000381469727,17.350000381469727,7442
2024-10-24,17.049999237060547,17.940000534057617,17.049999237060547,17.799999237060547,17.799999237060547,2062
2024-10-25,17.440000534057617,17.799999237060547,17.200000762939453,17.350000381469727,17.350000381469727,1594
2024-10-28,17.719999313354492,17.75,17.139999389648438,17.15999984741211,17.15999984741211,2633
2024-10-29,17.790000915527344,17.790000915527344,17.100000381469727,17.239999771118164,17.239999771118164,21882
2024-10-30,,,,,,
2024-10-31,17.31999969482422,18.5,17.31999969482422,17.940000534057617,17.940000534057617,7970
2024-11-01,18.31999969482422,18.799999237060547,17.889999389648438,18.729999542236328,18.729999542236328,11096
2024-11-04,19.100000381469727,19.950000762939453,18.969999313354492,19.200000762939453,19.200000762939453,59383
2024-11-05,,,,,,
2024-11-06,19.6200008392334,19.6200008392334,19.010000228881836,19.40999984741211,19.40999984741211,5194
2024-11-07,18.809999465942383,19.5,18.809999465942383,19.190000534057617,19.190000534057617,16316
2024-11-08,19.450000762939453,19.469999313354492,18.5,18.739999771118164,18.739999771118164,7323
2024-11-11,19.579999923706055,19.579999923706055,18.520000457763672,19.040000915527344,19.040000915527344,6273
2024-11-12,19.459999084472656,19.459999084472656,18.049999237060547,18.200000762939453,18.200000762939453,3148
2024-11-13,17.920000076293945,18.219999313354492,17.100000381469727,17.270000457763672,17.270000457763672,15866
2024-11-14,17.229999542236328,17.700000762939453,17.229999542236328,17.540000915527344,17.540000915527344,3841
2024-11-18,17.299999237060547,17.700000762939453,16.75,17.15999984741211,17.15999984741211,2843
2024-11-19,17.200000762939453,17.59000015258789,16.670000076293945,16.899999618530273,16.899999618530273,17145
2024-11-21,17.989999771118164,17.989999771118164,16.290000915527344,16.3700008392334,16.3700008392334,2778
2024-11-22,16.700000762939453,16.899999618530273,16.360000610351562,16.75,16.75,5453
2024-11-25,19,19,16.940000534057617,17.170000076293945,17.170000076293945,18117
2024-11-26,18.450000762939453,18.450000762939453,17,17.1200008392334,17.1200008392334,5559
2024-11-27,17.489999771118164,17.56999969482422,17.100000381469727,17.3700008392334,17.3700008392334,4490
2024-11-28,17.700000762939453,18.1299991607666,17.209999084472656,17.739999771118164,17.739999771118164,18327
2024-11-29,17.989999771118164,18.139999389648438,17.65999984741211,17.8700008392334,17.8700008392334,4717
2024-12-02,18.100000381469727,19.299999237060547,18.020000457763672,18.850000381469727,18.850000381469727,24435
2024-12-03,19.229999542236328,19.229999542236328,18.809999465942383,18.920000076293945,18.920000076293945,2200
2024-12-04,18.799999237060547,19.799999237060547,18.770000457763672,19,19,20926
2024-12-05,19.299999237060547,19.5,18.780000686645508,19.290000915527344,19.290000915527344,7060
2024-12-06,19.010000228881836,19.389999389648438,18.989999771118164,19.049999237060547,19.049999237060547,3286
2024-12-09,19.420000076293945,20.540000915527344,19.3700008392334,19.860000610351562,19.860000610351562,14492
2024-12-10,20.010000228881836,20.010000228881836,19.299999237060547,19.530000686645508,19.530000686645508,13015
2024-12-11,19.899999618530273,19.899999618530273,19.190000534057617,19.280000686645508,19.280000686645508,798
2024-12-12,19.5,19.5,19.079999923706055,19.219999313354492,19.219999313354492,1774
2024-12-13,19.010000228881836,19.459999084472656,18.610000610351562,18.969999313354492,18.969999313354492,849
2024-12-16,19.350000381469727,20.020000457763672,18.899999618530273,19.6299991607666,19.6299991607666,6946
2024-12-17,19.690000534057617,19.690000534057617,18.780000686645508,19.010000228881836,19.010000228881836,14959
2024-12-18,18.809999465942383,19.219999313354492,18.6200008392334,18.75,18.75,16401
2024-12-19,18.510000228881836,19,18.399999618530273,18.760000228881836,18.760000228881836,10484
2024-12-20,18.5,19.100000381469727,18.5,18.719999313354492,18.719999313354492,11919
2024-12-23,19.989999771118164,19.989999771118164,18.040000915527344,18.149999618530273,18.149999618530273,3481
2024-12-24,21,21,17.610000610351562,18.010000228881836,18.010000228881836,16347
2024-12-26,20.469999313354492,20.469999313354492,17.709999084472656,17.81999969482422,17.81999969482422,9667
2024-12-27,17.850000381469727,17.969999313354492,17.700000762939453,17.729999542236328,17.729999542236328,7942
2024-12-30,17.8799991607666,17.899999618530273,17.40999984741211,17.639999389648438,17.639999389648438,1774
2024-12-31,17.889999389648438,18.399999618530273,17.639999389648438,18.139999389648438,18.139999389648438,2327
2025-01-01,17.899999618530273,18.520000457763672,17.899999618530273,18.1299991607666,18.1299991607666,3355
2025-01-02,17.81999969482422,20,17.81999969482422,18.549999237060547,18.549999237060547,12603
2025-01-03,18.350000381469727,18.700000762939453,18.1299991607666,18.280000686645508,18.280000686645508,6076
2025-01-06,17.959999084472656,18.43000030517578,17.40999984741211,17.489999771118164,17.489999771118164,12984
2025-01-07,18.25,18.25,17.540000915527344,18.100000381469727,18.100000381469727,4973
2025-01-08,18.989999771118164,18.989999771118164,17.93000030517578,17.93000030517578,17.93000030517578,2743
2025-01-09,19.479999542236328,19.479999542236328,17.729999542236328,17.93000030517578,17.93000030517578,804
2025-01-10,18.5,18.5,17.010000228881836,17.170000076293945,17.170000076293945,6828
2025-01-13,17.489999771118164,17.489999771118164,16.559999465942383,16.729999542236328,16.729999542236328,2036
2025-01-14,17.049999237060547,17.06999969482422,16.780000686645508,17.06999969482422,17.06999969482422,1711
2025-01-15,17.350000381469727,17.43000030517578,16.81999969482422,17,17,6818
2025-01-16,17.200000762939453,17.31999969482422,17,17.239999771118164,17.239999771118164,1458
2025-01-17,17.3799991607666,17.399999618530273,16.700000762939453,16.829999923706055,16.829999923706055,6420
2025-01-20,16.950000762939453,17.149999618530273,16.860000610351562,17.100000381469727,17.100000381469727,1508
2025-01-21,17.5,17.5,16.5,16.520000457763672,16.520000457763672,17440
2025-01-22,16.84000015258789,16.84000015258789,16.299999237060547,16.440000534057617,16.440000534057617,10390
2025-01-23,16.260000228881836,17.549999237060547,16.260000228881836,16.700000762939453,16.700000762939453,43677
2025-01-24,16.889999389648438,16.889999389648438,15,15.510000228881836,15.510000228881836,14224
2025-01-27,15.279999732971191,15.279999732971191,14.529999732971191,14.680000305175781,14.680000305175781,9783
2025-01-28,14.800000190734863,15.699999809265137,14.369999885559082,15.319999694824219,15.319999694824219,7107
2025-01-29,16.5,16.5,15.5,15.979999542236328,15.979999542236328,6123
2025-01-30,16,18.020000457763672,16,17.770000457763672,17.770000457763672,52946
2025-01-31,18.25,19.850000381469727,17.799999237060547,19.469999313354492,19.469999313354492,40360
2025-02-01,19.309999465942383,20.850000381469727,18.790000915527344,19.68000030517578,19.68000030517578,18620
2025-02-03,19.68000030517578,19.989999771118164,19.260000228881836,19.6200008392334,19.6200008392334,5547
2025-02-04,19.25,20.010000228881836,19.25,19.8700008392334,19.8700008392334,12329
2025-02-05,19.5,19.90999984741211,19,19.40999984741211,19.40999984741211,3348
2025-02-06,18.6200008392334,20.700000762939453,18.479999542236328,20.1299991607666,20.1299991607666,23406
2025-02-07,19.299999237060547,20.06999969482422,19.299999237060547,19.399999618530273,19.399999618530273,3781
2025-02-10,19.299999237060547,19.690000534057617,19.1299991607666,19.18000030517578,19.18000030517578,682
2025-02-11,19.8799991607666,20.649999618530273,19.020000457763672,20.299999237060547,20.299999237060547,98429
2025-02-12,20.549999237060547,22.690000534057617,20.309999465942383,22.229999542236328,22.229999542236328,186078
2025-02-13,21.790000915527344,23.489999771118164,21.790000915527344,22.530000686645508,22.530000686645508,99658
2025-02-14,23.059999465942383,23.059999465942383,21.8799991607666,22.219999313354492,22.219999313354492,31190
2025-02-17,22,23.399999618530273,22,22.559999465942383,22.559999465942383,20505
2025-02-18,22.899999618530273,23.3799991607666,22,22.709999084472656,22.709999084472656,43636
2025-02-19,23.219999313354492,26.5,23.219999313354492,24.979999542236328,24.979999542236328,95504
2025-02-20,25.010000228881836,28.889999389648438,25.010000228881836,27.1200008392334,27.1200008392334,72645
2025-02-21,29.889999389648438,31.25,27.639999389648438,30.34000015258789,30.34000015258789,105797
2025-02-24,31.559999465942383,36.400001525878906,31.219999313354492,36.380001068115234,36.380001068115234,428479
2025-02-25,36.2599983215332,36.38999938964844,34.56999969482422,34.56999969482422,34.56999969482422,40665
2025-02-27,32.849998474121094,32.849998474121094,32.849998474121094,32.849998474121094,32.849998474121094,5080
2025-02-28,31.209999084472656,31.209999084472656,31.209999084472656,31.209999084472656,31.209999084472656,384
2025-03-03,29.649999618530273,29.649999618530273,29.649999618530273,29.649999618530273,29.649999618530273,465
2025-03-04,28.170000076293945,28.170000076293945,28.170000076293945,28.170000076293945,28.170000076293945,1222
2025-03-05,26.770000457763672,26.770000457763672,26.770000457763672,26.770000457763672,26.770000457763672,759
2025-03-06,25.440000534057617,25.440000534057617,25.440000534057617,25.440000534057617,25.440000534057617,2039
2025-03-07,24.170000076293945,26.709999084472656,24.170000076293945,26.68000030517578,26.68000030517578,55715
2025-03-10,27.799999237060547,27.799999237060547,25.350000381469727,25.350000381469727,25.350000381469727,28812
2025-03-11,24.09000015258789,24.09000015258789,24.09000015258789,24.09000015258789,24.09000015258789,298
2025-03-12,22.889999389648438,25.200000762939453,22.889999389648438,24.450000762939453,24.450000762939453,40096
2025-03-13,24.290000915527344,25.670000076293945,23.229999542236328,25.399999618530273,25.399999618530273,113206
2025-03-17,24.15999984741211,24.399999618530273,24.1299991607666,24.1299991607666,24.1299991607666,6777
2025-03-18,22.93000030517578,25,22.93000030517578,24.549999237060547,24.549999237060547,34813
2025-03-19,24.1299991607666,25.770000457763672,24.1299991607666,25.770000457763672,25.770000457763672,29093
2025-03-20,25.969999313354492,27.049999237060547,25.969999313354492,27.049999237060547,27.049999237060547,33213
2025-03-21,27.940000534057617,28.399999618530273,27.200000762939453,28.399999618530273,28.399999618530273,66134
2025-03-24,29.799999237060547,29.81999969482422,29.360000610351562,29.81999969482422,29.81999969482422,32559
2025-03-25,30.06999969482422,31.309999465942383,30.06999969482422,31.309999465942383,31.309999465942383,28422
2025-03-26,30.950000762939453,31.93000030517578,30.690000534057617,31.93000030517578,31.93000030517578,47855
2025-03-27,32.560001373291016,32.560001373291016,32.560001373291016,32.560001373291016,32.560001373291016,33937
2025-03-28,33.209999084472656,33.209999084472656,33.209999084472656,33.209999084472656,33.209999084472656,16996
2025-04-01,33.209999084472656,33.869998931884766,33.209999084472656,33.869998931884766,33.869998931884766,66059
2025-04-02,34.540000915527344,34.540000915527344,34.540000915527344,34.540000915527344,34.540000915527344,26949
2025-04-03,35.22999954223633,35.22999954223633,35.22999954223633,35.22999954223633,35.22999954223633,22689
2025-04-04,35.93000030517578,35.93000030517578,35.93000030517578,35.93000030517578,35.93000030517578,322134
2025-04-07,36.63999938964844,36.63999938964844,36.63999938964844,36.63999938964844,36.63999938964844,129505
2025-04-08,37.369998931884766,37.369998931884766,37.369998931884766,37.369998931884766,37.369998931884766,144442
2025-04-09,38.11000061035156,38.11000061035156,38.11000061035156,38.11000061035156,38.11000061035156,68391
2025-04-11,38.869998931884766,38.869998931884766,38.869998931884766,38.869998931884766,38.869998931884766,61330
2025-04-15,39.63999938964844,39.63999938964844,39.63999938964844,39.63999938964844,39.63999938964844,54885
2025-04-16,40.43000030517578,40.43000030517578,40.43000030517578,40.43000030517578,40.43000030517578,601527
2025-04-17,41.22999954223633,41.22999954223633,41.22999954223633,41.22999954223633,41.22999954223633,244766
2025-04-21,41.880001068115234,41.880001068115234,40.40999984741211,40.40999984741211,40.40999984741211,69489
2025-04-22,39.61000061035156,39.61000061035156,39.61000061035156,39.61000061035156,39.61000061035156,10295
2025-04-23,38.81999969482422,38.81999969482422,38.81999969482422,38.81999969482422,38.81999969482422,44784
2025-04-24,38.04999923706055,38.04999923706055,38.04999923706055,38.04999923706055,38.04999923706055,70353
2025-04-25,37.290000915527344,37.290000915527344,37.290000915527344,37.290000915527344,37.290000915527344,16260
2025-04-28,38,38,36.54999923706055,36.54999923706055,36.54999923706055,102018
2025-04-29,35.81999969482422,35.81999969482422,35.81999969482422,35.81999969482422,35.81999969482422,27608
2025-04-30,35.11000061035156,35.11000061035156,35.11000061035156,35.11000061035156,35.11000061035156,12251
2025-05-02,34.40999984741211,34.40999984741211,34.40999984741211,34.40999984741211,34.40999984741211,8020
2025-05-05,32.689998626708984,34.130001068115234,32.689998626708984,32.689998626708984,32.689998626708984,174590
2025-05-06,31.059999465942383,31.059999465942383,31.059999465942383,31.059999465942383,31.059999465942383,26210
2025-05-07,29.549999237060547,32.599998474121094,29.510000228881836,30.579999923706055,30.579999923706055,57925
2025-05-08,32.099998474121094,32.099998474121094,32.099998474121094,32.099998474121094,32.099998474121094,13255
2025-05-09,30.5,33.70000076293945,30.5,33.70000076293945,33.70000076293945,53445
2025-05-12,34.689998626708984,35.380001068115234,34.689998626708984,35.380001068115234,35.380001068115234,2200
2025-05-13,37.13999938964844,37.13999938964844,37.13999938964844,37.13999938964844,37.13999938964844,4365
2025-05-14,38.9900016784668,38.9900016784668,36,37.43000030517578,37.43000030517578,283881
2025-05-15,36.689998626708984,36.689998626708984,36.689998626708984,36.689998626708984,36.689998626708984,56946
2025-05-16,37.150001525878906,37.400001525878906,37.150001525878906,37.400001525878906,37.400001525878906,52423
2025-05-19,36.689998626708984,38.13999938964844,36.689998626708984,37.900001525878906,37.900001525878906,74418
2025-05-20,38.5,38.650001525878906,38.29999923706055,38.650001525878906,38.650001525878906,187235
2025-05-21,39.41999816894531,39.41999816894531,39.41999816894531,39.41999816894531,39.41999816894531,83045
2025-05-22,40.20000076293945,40.20000076293945,40.20000076293945,40.20000076293945,40.20000076293945,72996
2025-05-23,41,41,41,41,41,48322
2025-05-26,41.81999969482422,41.81999969482422,41.81999969482422,41.81999969482422,41.81999969482422,13429
2025-05-27,42.650001525878906,42.650001525878906,42.650001525878906,42.650001525878906,42.650001525878906,15643
2025-05-28,43.5,43.5,43.45000076293945,43.45000076293945,43.45000076293945,33261
2025-05-29,44.310001373291016,44.310001373291016,44.310001373291016,44.310001373291016,44.310001373291016,91928
2025-05-30,45.189998626708984,45.189998626708984,43.43000030517578,43.43000030517578,43.43000030517578,891215
2025-06-02,42.56999969482422,42.56999969482422,42.56999969482422,42.56999969482422,42.56999969482422,9509
2025-06-03,41.720001220703125,41.720001220703125,41.720001220703125,41.720001220703125,41.720001220703125,2530
2025-06-04,40.88999938964844,40.88999938964844,40.88999938964844,40.88999938964844,40.88999938964844,3107
2025-06-05,40.08000183105469,40.08000183105469,40.08000183105469,40.08000183105469,40.08000183105469,961
2025-06-06,39.279998779296875,39.279998779296875,39.279998779296875,39.279998779296875,39.279998779296875,36
2025-06-09,38.5,40,38.5,39.63999938964844,39.63999938964844,138117
2025-06-10,38.849998474121094,38.849998474121094,38.849998474121094,38.849998474121094,38.849998474121094,4730
2025-06-11,38.08000183105469,38.099998474121094,38.08000183105469,38.08000183105469,38.08000183105469,10353
2025-06-12,37.31999969482422,37.31999969482422,37.31999969482422,37.31999969482422,37.31999969482422,52840
2025-06-13,36.58000183105469,36.58000183105469,36.58000183105469,36.58000183105469,36.58000183105469,722
2025-06-16,35.849998474121094,35.849998474121094,35.849998474121094,35.849998474121094,35.849998474121094,1416
2025-06-17,35.13999938964844,35.13999938964844,35.13999938964844,35.13999938964844,35.13999938964844,2056
2025-06-18,34.439998626708984,35.84000015258789,34.439998626708984,34.439998626708984,34.439998626708984,31806
2025-06-19,33.7599983215332,33.7599983215332,33.7599983215332,33.7599983215332,33.7599983215332,104352
2025-06-20,33.09000015258789,33.09000015258789,33.09000015258789,33.09000015258789,33.09000015258789,98
2025-06-23,31.440000534057617,31.440000534057617,31.440000534057617,31.440000534057617,31.440000534057617,15119
2025-06-24,29.8700008392334,33.0099983215332,29.8700008392334,31.040000915527344,31.040000915527344,267935
2025-06-25,31.479999542236328,32.349998474121094,30,32.02000045776367,32.02000045776367,17081
2025-06-26,33.5,33.5,31.209999084472656,31.540000915527344,31.540000915527344,7242
2025-06-27,31.540000915527344,33.099998474121094,31.200000762939453,33,33,13927
2025-06-30,33,34.650001525878906,33,34.650001525878906,34.650001525878906,26883
2025-07-01,33.29999923706055,36.380001068115234,33.29999923706055,35.41999816894531,35.41999816894531,13549
2025-07-02,34.779998779296875,36,33.650001525878906,34.7400016784668,34.7400016784668,27570
2025-07-03,33.349998474121094,34,33.0099983215332,33.0099983215332,33.0099983215332,13692
2025-07-04,32.66999816894531,32.66999816894531,31.360000610351562,31.959999084472656,31.959999084472656,10479
2025-07-07,30.600000381469727,32.900001525878906,30.600000381469727,31.3700008392334,31.3700008392334,2102
2025-07-08,32.20000076293945,32.20000076293945,31.100000381469727,31.969999313354492,31.969999313354492,3937
2025-07-09,32.31999969482422,32.869998931884766,31.5,31.5,31.5,1122
2025-07-10,31.510000228881836,32.38999938964844,31.260000228881836,31.479999542236328,31.479999542236328,4144
2025-07-11,31.5,31.799999237060547,31.350000381469727,31.579999923706055,31.579999923706055,7066
2025-07-14,32,32.349998474121094,31.100000381469727,31.5,31.5,6075
2025-07-15,31.5,32.5,31.059999465942383,32.150001525878906,32.150001525878906,5809
2025-07-16,32,33.75,32,33.75,33.75,42239
2025-07-17,35,35.43000030517578,33.150001525878906,35.43000030517578,35.43000030517578,179807
2025-07-18,34.70000076293945,37.20000076293945,34.70000076293945,37.20000076293945,37.20000076293945,119626
2025-07-21,37.5,37.75,35.34000015258789,35.63999938964844,35.63999938964844,127861
2025-07-22,34.93000030517578,34.93000030517578,34.93000030517578,34.93000030517578,34.93000030517578,13526
2025-07-23,34.2400016784668,34.2400016784668,34.2400016784668,34.2400016784668,34.2400016784668,7272
2025-07-24,33.560001373291016,33.560001373291016,33.560001373291016,33.560001373291016,33.560001373291016,11918
2025-07-25,32.88999938964844,32.900001525878906,32.88999938964844,32.88999938964844,32.88999938964844,662
2025-07-28,32.2400016784668,33.400001525878906,32.2400016784668,33.400001525878906,33.400001525878906,3764
2025-07-29,32.7400016784668,33,32.7400016784668,33,33,7851
2025-07-30,33.65999984741211,33.65999984741211,33.5,33.65999984741211,33.65999984741211,4502
2025-07-31,33.04999923706055,33.45000076293945,32.9900016784668,33.45000076293945,33.45000076293945,10695
2025-08-01,33.599998474121094,33.70000076293945,33.599998474121094,33.66999816894531,33.66999816894531,2707
2025-08-04,33,33.5,33,33.5,33.5,662
2025-08-05,34.16999816894531,34.16999816894531,34.16999816894531,34.16999816894531,34.16999816894531,3900
2025-08-06,34.849998474121094,34.849998474121094,33.5099983215332,33.529998779296875,33.529998779296875,2601
2025-08-07,33.529998779296875,33.529998779296875,33.529998779296875,33.529998779296875,33.529998779296875,9
2025-08-08,32.86000061035156,33,32.86000061035156,33,33,10234
2025-08-11,33.099998474121094,33.65999984741211,33,33,33,13434
2025-08-12,33.5,33.5,32.900001525878906,32.900001525878906,32.900001525878906,7128
2025-08-13,32.25,32.25,32.25,32.25,32.25,56
2025-08-14,32,32,31.6200008392334,31.6200008392334,31.6200008392334,590
2025-08-18,31,31,30.989999771118164,30.989999771118164,30.989999771118164,3408
2025-08-19,30.399999618530273,31.600000381469727,30.399999618530273,31.600000381469727,31.600000381469727,163928
2025-08-20,31.200000762939453,32.22999954223633,31.200000762939453,31.899999618530273,31.899999618530273,18571
2025-08-21,32.4900016784668,32.529998779296875,32.20000076293945,32.529998779296875,32.529998779296875,21254
2025-08-22,33.18000030517578,33.18000030517578,33.18000030517578,33.18000030517578,33.18000030517578,6706
2025-08-25,33.5,33.84000015258789,33,33,33,16417
2025-08-26,33,33,32.34000015258789,32.34000015258789,32.34000015258789,102
2025-08-28,31.700000762939453,31.700000762939453,31.700000762939453,31.700000762939453,31.700000762939453,3889
2025-08-29,31.06999969482422,31.690000534057617,31.06999969482422,31.690000534057617,31.690000534057617,3950
2025-09-01,31.3700008392334,32.20000076293945,30.110000610351562,30.729999542236328,30.729999542236328,3313
2025-09-02,30.729999542236328,31,29.6200008392334,30.079999923706055,30.079999923706055,8118
2025-09-03,30.510000228881836,30.510000228881836,29.309999465942383,30,30,17072
2025-09-04,29.100000381469727,31,29.100000381469727,30.25,30.25,8553
2025-09-05,30.25,30.899999618530273,29,29.389999389648438,29.389999389648438,7333
2025-09-08,30.520000457763672,30.850000381469727,30,30.489999771118164,30.489999771118164,5820
2025-09-09,30.149999618530273,30.18000030517578,29.31999969482422,30.100000381469727,30.100000381469727,1646
2025-09-10,29.299999237060547,31.549999237060547,29.020000457763672,30.350000381469727,30.350000381469727,7996
2025-09-11,30.350000381469727,31.200000762939453,30.010000228881836,30.979999542236328,30.979999542236328,3804
2025-09-12,30.979999542236328,32,29.510000228881836,31.479999542236328,31.479999542236328,19867
2025-09-15,32.0099983215332,37.77000045776367,32.0099983215332,33.790000915527344,33.790000915527344,429429
2025-09-16,34.20000076293945,35.65999984741211,33.599998474121094,34.91999816894531,34.91999816894531,13529
2025-09-17,34.5,34.599998474121094,32.5,32.959999084472656,32.959999084472656,17312
2025-09-18,32.56999969482422,36,32.31999969482422,34.459999084472656,34.459999084472656,13995
2025-09-19,33.40999984741211,35.70000076293945,32.97999954223633,34.720001220703125,34.720001220703125,16740
2025-09-22,32.20000076293945,34.470001220703125,32.20000076293945,33.119998931884766,33.119998931884766,10297
2025-09-23,32.79999923706055,34.45000076293945,32.4900016784668,32.84000015258789,32.84000015258789,17205
2025-09-24,33.70000076293945,33.70000076293945,32.04999923706055,32.11000061035156,32.11000061035156,4894
2025-09-25,34.5,34.5,31.600000381469727,31.860000610351562,31.860000610351562,8829
2025-09-26,31.899999618530273,33.459999084472656,31.020000457763672,31.260000228881836,31.260000228881836,10319
2025-09-29,31.049999237060547,32.65999984741211,30.950000762939453,30.969999313354492,30.969999313354492,22080
2025-09-30,31.360000610351562,31.940000534057617,30.8700008392334,30.8700008392334,30.8700008392334,3184
2025-10-01,30.5,31.229999542236328,29.850000381469727,30.510000228881836,30.510000228881836,10371
2025-10-03,30.81999969482422,33.54999923706055,30.81999969482422,32.88999938964844,32.88999938964844,6386
2025-10-06,33.209999084472656,33.939998626708984,32.63999938964844,32.65999984741211,32.65999984741211,1722
2025-10-07,32,32.7599983215332,32,32.310001373291016,32.310001373291016,198
2025-10-08,32.310001373291016,32.900001525878906,31.459999084472656,31.65999984741211,31.65999984741211,5950
2025-10-09,30.510000228881836,33,30.510000228881836,31.729999542236328,31.729999542236328,1781
2025-10-10,31.450000762939453,32.18000030517578,31.239999771118164,31.559999465942383,31.559999465942383,4631
2025-10-13,31.329999923706055,31.329999923706055,30.040000915527344,30.309999465942383,30.309999465942383,2943
2025-10-14,30.649999618530273,30.780000686645508,30,30.25,30.25,8895
2025-10-15,29.940000534057617,30.850000381469727,29.520000457763672,29.899999618530273,29.899999618530273,2506
2025-10-16,30.209999084472656,32.5,30.209999084472656,31.100000381469727,31.100000381469727,31885
2025-10-17,30.360000610351562,30.360000610351562,29.559999465942383,29.780000686645508,29.780000686645508,6417
2025-10-20,28.799999237060547,30.190000534057617,28.799999237060547,29.8700008392334,29.8700008392334,3804
2025-10-21,29.56999969482422,29.739999771118164,29.56999969482422,29.739999771118164,29.739999771118164,66
2025-10-23,29.440000534057617,30.059999465942383,29.440000534057617,29.809999465942383,29.809999465942383,2906
2025-10-24,29.600000381469727,30,29.600000381469727,29.93000030517578,29.93000030517578,3258