Date,Open,High,Low,Close,Adj Close,Volume
2023-10-25,122.43000030517578,123.77999877929688,121.88999938964844,122.37000274658203,119.44449615478516,431300
2023-10-26,121.26000213623047,125.38999938964844,121.26000213623047,123.43000030517578,120.47916412353516,576000
2023-10-27,123.47000122070312,123.83999633789062,120.36000061035156,121.16999816894531,118.27318572998047,364000
2023-10-30,121.91999816894531,122.31999969482422,120.8499984741211,122.16999816894531,119.24928283691406,283100
2023-10-31,122.51000213623047,122.88999938964844,121.83000183105469,122.2699966430664,119.34688568115234,422900
2023-11-01,122.11000061035156,123.43000030517578,121.61000061035156,122.93000030517578,119.99111938476562,360500
2023-11-02,123.72000122070312,124.29000091552734,122.9800033569336,123.58000183105469,120.62557220458984,384300
2023-11-03,124.43000030517578,125.97000122070312,124.43000030517578,125.3499984741211,122.35325622558594,278000
2023-11-06,125.2699966430664,125.7300033569336,124.75,125.19000244140625,122.19708251953125,173500
2023-11-07,124.62000274658203,124.98999786376953,124.16999816894531,124.55000305175781,121.57239532470703,205000
2023-11-08,124.87999725341797,125.48999786376953,124.41000366210938,125.12000274658203,122.1287612915039,175800
2023-11-09,125.69000244140625,125.69000244140625,124.06999969482422,124.38999938964844,121.41621398925781,118600
2023-11-10,124.23999786376953,125.79000091552734,123.88999938964844,125.72000122070312,122.71440887451172,195600
2023-11-13,125.38999938964844,125.4800033569336,124.37000274658203,124.52999877929688,121.55287170410156,183100
2023-11-14,125.94999694824219,127.86000061035156,125.30999755859375,127.8499984741211,124.79348754882812,267400
2023-11-15,127.81999969482422,128.8000030517578,127.3499984741211,127.70999908447266,124.6568374633789,388600
2023-11-16,127.6500015258789,128.6199951171875,126.83999633789062,127.55000305175781,124.50067138671875,217000
2023-11-17,128.55999755859375,129.0800018310547,127.61000061035156,127.93000030517578,124.87158203125,162700
2023-11-20,127.44999694824219,127.6500015258789,126.43000030517578,127.31999969482422,124.27616119384766,213900
2023-11-21,127.45999908447266,128.3000030517578,127.19999694824219,127.91000366210938,124.85206604003906,160600
2023-11-22,128.4499969482422,129.1999969482422,127.36000061035156,128.57000732421875,125.49628448486328,174800
2023-11-24,128.97000122070312,128.97000122070312,128.10000610351562,128.52999877929688,125.45724487304688,65900
2023-11-27,127.81999969482422,128.3000030517578,126.8499984741211,127,123.96381378173828,367500
2023-11-28,127,127.01000213623047,125.48999786376953,125.61000061035156,122.6070327758789,218000
2023-11-29,125.63999938964844,126.4000015258789,124.91999816894531,125.37000274658203,122.3727798461914,331800
2023-11-30,125.44999694824219,127.12999725341797,124.80999755859375,126.88999938964844,123.85643768310547,301000
2023-12-01,126.41999816894531,128.5399932861328,126.41999816894531,128.10000610351562,125.03752899169922,218300
2023-12-04,127.44999694824219,128.8800048828125,126.88999938964844,128.4199981689453,125.349853515625,192000
2023-12-05,128.25,128.69000244140625,125.87999725341797,125.98999786376953,122.97795867919922,178000
2023-12-06,126.38999938964844,127.30000305175781,125.87999725341797,126.37000274658203,123.348876953125,179500
2023-12-07,126.23999786376953,127.11000061035156,125.98999786376953,126.48999786376953,123.46600341796875,254000
2023-12-08,126.36000061035156,127.5,125.62000274658203,127.31999969482422,124.27616119384766,265800
2023-12-11,127.26000213623047,127.68000030517578,126.33999633789062,127.56999969482422,124.52017974853516,338000
2023-12-12,127.6500015258789,128.10000610351562,126.68000030517578,127.4800033569336,124.4323501586914,210300
2023-12-13,127.18000030517578,128.99000549316406,127.18000030517578,128.58999633789062,125.51579284667969,425000
2023-12-14,129.0800018310547,130.00999450683594,126.87999725341797,127.4000015258789,124.35426330566406,412900
2023-12-15,127.16000366210938,128.5800018310547,125.97000122070312,125.9800033569336,122.96820831298828,713000
2023-12-18,126.70999908447266,127.20999908447266,125.87999725341797,127.05000305175781,124.01261138916016,240500
2023-12-19,127.70999908447266,128.1300048828125,126.02999877929688,126.2300033569336,123.21221923828125,659100
2023-12-20,126.0199966430664,126.94000244140625,125.45999908447266,125.56999969482422,122.5679931640625,346400
2023-12-21,126.23999786376953,126.23999786376953,124.8499984741211,125.91000366210938,122.89988708496094,421900
2023-12-22,126.4000015258789,127.04000091552734,126.12000274658203,126.2699966430664,123.25125885009766,312200
2023-12-26,126.13999938964844,126.87000274658203,125.58999633789062,125.83000183105469,122.82179260253906,274700
2023-12-27,126.12000274658203,126.47000122070312,125.02999877929688,125.27999877929688,122.28491973876953,283100
2023-12-28,124.9800033569336,125.80000305175781,124.4000015258789,125.19999694824219,122.20684051513672,343600
2023-12-29,125.19000244140625,125.36000061035156,123.55999755859375,123.62000274658203,120.66461944580078,313500
2024-01-02,122.61000061035156,124.0999984741211,122.29000091552734,122.87999725341797,119.94230651855469,313100
2024-01-03,125.1500015258789,127.26000213623047,123.1500015258789,125.36000061035156,122.3630142211914,531700
2024-01-04,125.18000030517578,125.91999816894531,124.12999725341797,124.22000122070312,121.2502670288086,353300
2024-01-05,123.77999877929688,124.37000274658203,122.98999786376953,124.19999694824219,121.23074340820312,423000
2024-01-08,124.06999969482422,125.16000366210938,122.37000274658203,124.3499984741211,121.37716674804688,352400
2024-01-09,123.70999908447266,124.63999938964844,122.97000122070312,124.62999725341797,121.65047454833984,250300
2024-01-10,124.45999908447266,125.41999816894531,124.2300033569336,125.19000244140625,122.19708251953125,279600
2024-01-11,125.37999725341797,126.97000122070312,124.94000244140625,126.83999633789062,123.80762481689453,323100
2024-01-12,127.88999938964844,127.97000122070312,125.91999816894531,126.43000030517578,123.40743255615234,231700
2024-01-16,125.87999725341797,126.81999969482422,125.51000213623047,126.80999755859375,123.7783432006836,257500
2024-01-17,125.94000244140625,127.2699966430664,125.88999938964844,126.69000244140625,123.66122436523438,336900
2024-01-18,127.31999969482422,130.00999450683594,126.30999755859375,129.13999938964844,126.05265045166016,444200
2024-01-19,129.7100067138672,131.4600067138672,128.5399932861328,130.8000030517578,127.67296600341797,418000
2024-01-22,130.89999389648438,131.80999755859375,130.55999755859375,131.19000244140625,128.05364990234375,266200
2024-01-23,131.8000030517578,131.85000610351562,130.3300018310547,131.8300018310547,128.67835998535156,217800
2024-01-24,132.1199951171875,132.2899932861328,130.5399932861328,130.77999877929688,127.65345001220703,294400
2024-01-25,132.02999877929688,132.3800048828125,130.3800048828125,131.25,128.11221313476562,332300
2024-01-26,131.67999267578125,132.58999633789062,131.39999389648438,131.6999969482422,128.55145263671875,219900
2024-01-29,131.0500030517578,132.58999633789062,130.49000549316406,132.25,129.08828735351562,187800
2024-01-30,132.02999877929688,133.08999633789062,131.6300048828125,132.25,129.08828735351562,228400
2024-01-31,132.3699951171875,132.77000427246094,129.16000366210938,129.8800048828125,127.16921997070312,537500
2024-02-01,130.4600067138672,131.11000061035156,129.61000061035156,130.5,127.77628326416016,298800
2024-02-02,129.9600067138672,130.7100067138672,128.69000244140625,130.10000610351562,127.38461303710938,344800
2024-02-05,129.1300048828125,131.4499969482422,128.0500030517578,130.64999389648438,127.92312622070312,319500
2024-02-06,130.47999572753906,131.39999389648438,129.3000030517578,131.1300048828125,128.3931427001953,369700
2024-02-07,131.41000366210938,132.4199981689453,129.3699951171875,131.8000030517578,129.04916381835938,393000
2024-02-08,131.63999938964844,134.83999633789062,131.5399932861328,132.1199951171875,129.36245727539062,620700
2024-02-09,132.11000061035156,139.2100067138672,131.50999450683594,138.9600067138672,136.05972290039062,650900
2024-02-12,139.16000366210938,140.47000122070312,137.50999450683594,137.61000061035156,134.73788452148438,491300
2024-02-13,136.69000244140625,137.3300018310547,134.97999572753906,135.92999267578125,133.0929412841797,275900
2024-02-14,136.25999450683594,137.4600067138672,135.1699981689453,137.1699981689453,134.30706787109375,335000
2024-02-15,137.1699981689453,137.80999755859375,134.57000732421875,135.0399932861328,132.2215118408203,471400
2024-02-16,135.3699951171875,138,135.0399932861328,137.5,134.6301727294922,453900
2024-02-20,137.13999938964844,140.13999938964844,136.9499969482422,139.69000244140625,136.7744598388672,373000
2024-02-21,139.0800018310547,140.11000061035156,138.99000549316406,140,137.0780029296875,276300
2024-02-22,140.47000122070312,142.4199981689453,140.07000732421875,141.47000122070312,138.51731872558594,295700
2024-02-23,141.97000122070312,142.0500030517578,140.60000610351562,141.36000061035156,138.4095916748047,190300
2024-02-26,141.5,142.05999755859375,140.8000030517578,141.9199981689453,138.9579315185547,199200
2024-02-27,141.9199981689453,142.17999267578125,139.8000030517578,140.30999755859375,137.38153076171875,244600
2024-02-28,139.64999389648438,141.24000549316406,139.3300018310547,140.41000366210938,137.4794464111328,189600
2024-02-29,140.6300048828125,141.6300048828125,139.8300018310547,140.4600067138672,137.52838134765625,250600
2024-03-01,139.8800048828125,140.7899932861328,139.55999755859375,140.2899932861328,137.3619384765625,151400
2024-03-04,140.69000244140625,142.1199951171875,140.55999755859375,141.9600067138672,138.9971160888672,260300
2024-03-05,142.27000427246094,143.2100067138672,141.74000549316406,142.52000427246094,139.54541015625,190200
2024-03-06,142.92999267578125,143.63999938964844,142.47999572753906,143.07000732421875,140.08392333984375,184000
2024-03-07,144.5,145.13999938964844,143.83999633789062,144.64999389648438,141.6309356689453,250100
2024-03-08,144.7100067138672,145.07000732421875,142.97000122070312,143.08999633789062,140.10350036621094,185200
2024-03-11,142.7899932861328,143.3800048828125,141.97999572753906,142.74000549316406,139.7608184814453,226700
2024-03-12,142.8000030517578,142.85000610351562,141.47999572753906,142.41000366210938,139.43771362304688,242200
2024-03-13,143,143,140.92999267578125,141.16000366210938,138.21380615234375,336800
2024-03-14,141.36000061035156,141.6199951171875,140.36000061035156,140.92999267578125,137.98855590820312,235200
2024-03-15,140.0399932861328,142.41000366210938,139.74000549316406,141,138.05711364746094,599500
2024-03-18,140.92999267578125,141.3000030517578,138.92999267578125,139.25999450683594,136.35342407226562,299700
2024-03-19,138.8800048828125,140.32000732421875,138.8800048828125,139.50999450683594,136.59820556640625,253000
2024-03-20,139.6300048828125,140.07000732421875,139.13999938964844,139.97000122070312,137.0486297607422,220000
2024-03-21,140.30999755859375,141.60000610351562,139.3000030517578,141.13999938964844,138.1942138671875,255800
2024-03-22,142.00999450683594,142.4499969482422,141.0500030517578,141.58999633789062,138.63479614257812,276000
2024-03-25,141.1999969482422,144.0500030517578,141.1699981689453,142.9600067138672,139.97622680664062,316300
2024-03-26,142.8300018310547,144.30999755859375,142.6199951171875,143.1999969482422,140.21121215820312,314200
2024-03-27,143.6699981689453,145.14999389648438,143.6699981689453,144.66000366210938,141.64073181152344,218200
2024-03-28,144.82000732421875,145.35000610351562,143.64999389648438,143.88999938964844,140.88681030273438,247800
2024-04-01,143.7899932861328,143.7899932861328,142.1199951171875,142.2899932861328,139.32020568847656,204400
2024-04-02,141.83999633789062,141.83999633789062,140.38999938964844,140.6300048828125,137.69483947753906,202600
2024-04-03,140.6699981689453,141.19000244140625,139.8699951171875,140.8800048828125,137.93963623046875,258700
2024-04-04,141.8300018310547,142.75,140.97000122070312,141.75,138.7914581298828,403600
2024-04-05,141.3800048828125,142.75999450683594,140.9499969482422,141.72999572753906,138.7718963623047,288300
2024-04-08,141.6699981689453,142.3800048828125,140.38999938964844,140.50999450683594,137.57733154296875,312500
2024-04-09,140.4199981689453,141.10000610351562,139.36000061035156,140.30999755859375,137.38153076171875,242600
2024-04-10,138.97999572753906,140.22000122070312,138.4499969482422,139.39999389648438,136.49050903320312,200700
2024-04-11,139.25999450683594,140.0399932861328,138.4499969482422,139.1300048828125,136.22613525390625,265300
2024-04-12,138.1699981689453,138.9499969482422,135.9600067138672,137.1999969482422,134.33642578125,299200
2024-04-15,138.61000061035156,139.80999755859375,137.8300018310547,138.1999969482422,135.31556701660156,319600
2024-04-16,137.7899932861328,139.38999938964844,137.36000061035156,138.58999633789062,135.6974334716797,281700
2024-04-17,138.8800048828125,139.47999572753906,138.35000610351562,138.39999389648438,135.51138305664062,565400
2024-04-18,138.38999938964844,139.44000244140625,138.22000122070312,139.11000061035156,136.20655822753906,246600
2024-04-19,139.05999755859375,139.9199981689453,138.77000427246094,139.33999633789062,136.43174743652344,276600
2024-04-22,139.5500030517578,141.14999389648438,139.25,140.32000732421875,137.3913116455078,298800
2024-04-23,139.77000427246094,141.16000366210938,139.52000427246094,140.14999389648438,137.224853515625,417200
2024-04-24,139.9499969482422,140.89999389648438,139.63999938964844,140.00999450683594,137.489990234375,559200
2024-04-25,139.83999633789062,141.25,138.9199981689453,140.17999267578125,137.65695190429688,694400
2024-04-26,142,148.50999450683594,141.89999389648438,143.3300018310547,140.750244140625,489500
2024-04-29,144.89999389648438,148.02000427246094,144.3699951171875,146.3800048828125,143.74537658691406,676700
2024-04-30,145.74000549316406,146.10000610351562,144.05999755859375,144.3800048828125,141.78135681152344,585100
2024-05-01,144.99000549316406,147.2100067138672,144.5800018310547,145.3800048828125,142.7633514404297,359600
2024-05-02,145.75999450683594,146.72999572753906,145.2899932861328,145.9199981689453,143.29364013671875,356500
2024-05-03,147.11000061035156,147.1300048828125,144.83999633789062,146.80999755859375,144.1676025390625,303300
2024-05-06,147.75999450683594,149.0800018310547,147.16000366210938,149.0399932861328,146.3574676513672,260200
2024-05-07,148.32000732421875,150.3800048828125,148.32000732421875,149.72000122070312,147.02523803710938,392900
2024-05-08,149.72000122070312,150.8699951171875,149.47999572753906,150.7899932861328,148.07598876953125,223500
2024-05-09,151,151.72999572753906,148.6300048828125,149.0800018310547,146.39675903320312,299100
2024-05-10,148.9499969482422,149,148.08999633789062,148.49000549316406,145.8173828125,186300
2024-05-13,148.52999877929688,149.47999572753906,146.86000061035156,147.8699951171875,145.2085418701172,167500
2024-05-14,148.3000030517578,148.30999755859375,147.47000122070312,147.89999389648438,145.23800659179688,137600
2024-05-15,147.9600067138672,148.33999633789062,146.77000427246094,147.27999877929688,144.62913513183594,211100
2024-05-16,147.3699951171875,147.89999389648438,146.42999267578125,147.5399932861328,144.88446044921875,235500
2024-05-17,147.85000610351562,148.1699981689453,147.1300048828125,147.6699981689453,145.0121307373047,169500
2024-05-20,147.58999633789062,148.41000366210938,147.0399932861328,148.1699981689453,145.50314331054688,163400
2024-05-21,147.94000244140625,148.67999267578125,147.08999633789062,148.58999633789062,145.9155731201172,280400
2024-05-22,148.07000732421875,148.8300018310547,147.47000122070312,148.7899932861328,146.11196899414062,283300
2024-05-23,148.66000366210938,148.9499969482422,147.55999755859375,147.72000122070312,145.06121826171875,171700
2024-05-24,148.47999572753906,148.8300018310547,147.36000061035156,148.08999633789062,145.42459106445312,162300
2024-05-28,147.6199951171875,147.77999877929688,145.82000732421875,146.7100067138672,144.06939697265625,318400
2024-05-29,145.64999389648438,146.6999969482422,144.50999450683594,144.83999633789062,142.23304748535156,229700
2024-05-30,145.1300048828125,146.97999572753906,145,146.13999938964844,143.50967407226562,328100
2024-05-31,146.08999633789062,147.8300018310547,145.9199981689453,147.69000244140625,145.0318145751953,358900
2024-06-03,148.5,148.5,146.27999877929688,148.16000366210938,145.49334716796875,266200
2024-06-04,147.64999389648438,148.38999938964844,146.6999969482422,148.19000244140625,145.5227508544922,287900
2024-06-05,147.72000122070312,148.1999969482422,147.0800018310547,147.9199981689453,145.2576446533203,229200
2024-06-06,148.00999450683594,148.00999450683594,145.39999389648438,145.9600067138672,143.33290100097656,197600
2024-06-07,145.77000427246094,146.3300018310547,145.4499969482422,145.5500030517578,142.9302978515625,179100
2024-06-10,144.8300018310547,145.80999755859375,143.99000549316406,145.58999633789062,142.96957397460938,125800
2024-06-11,144.91000366210938,145.74000549316406,144.35000610351562,145.5,142.8811798095703,147700
2024-06-12,146.24000549316406,146.30999755859375,144.07000732421875,145.8300018310547,143.2052459716797,221300
2024-06-13,145.88999938964844,146.52999877929688,145.02000427246094,145.8300018310547,143.2052459716797,232400
2024-06-14,145.08999633789062,145.3800048828125,143.67999267578125,144.75,142.1446990966797,141500
2024-06-17,144.8699951171875,146.67999267578125,144.57000732421875,146.3300018310547,143.69627380371094,303800
2024-06-18,146.47999572753906,147.69000244140625,146.47000122070312,146.69000244140625,144.04977416992188,219900
2024-06-20,146.66000366210938,147.52999877929688,145.6699981689453,145.80999755859375,143.1855926513672,199900
2024-06-21,145.8699951171875,147.13999938964844,145.30999755859375,146.85000610351562,144.2069091796875,444100
2024-06-24,147.22000122070312,148.22999572753906,146.6699981689453,146.72000122070312,144.0792236328125,182900
2024-06-25,146.7899932861328,146.8000030517578,144.5,144.86000061035156,142.25271606445312,194500
2024-06-26,144.25,144.7899932861328,142.9600067138672,143.7100067138672,141.1234130859375,192400
2024-06-27,143.8699951171875,143.8800048828125,142.27000427246094,143.8699951171875,141.28053283691406,377300
2024-06-28,143.77999877929688,144.32000732421875,140.08999633789062,140.80999755859375,138.27560424804688,435100
2024-07-01,141.3800048828125,141.47999572753906,138.38999938964844,138.5399932861328,136.0464630126953,306400
2024-07-02,138.47999572753906,140.5,137.75999450683594,140.39999389648438,137.87298583984375,259400
2024-07-03,140.8800048828125,141.39999389648438,140.57000732421875,141.22000122070312,138.67825317382812,143300
2024-07-05,140.99000549316406,141.44000244140625,139.72999572753906,140.89999389648438,138.3639678955078,207000
2024-07-08,141.64999389648438,142.5,141.5,141.50999450683594,138.96299743652344,249300
2024-07-09,140.86000061035156,141.27000427246094,139.75,140.0399932861328,137.51943969726562,238400
2024-07-10,140.75,141.6300048828125,140.57000732421875,141.2899932861328,138.7469482421875,142000
2024-07-11,141.1999969482422,143.3000030517578,140.75,142.08999633789062,139.53257751464844,244500
2024-07-12,143.41000366210938,145.49000549316406,143.41000366210938,144.58999633789062,141.98757934570312,263900
2024-07-15,144.75999450683594,145.69000244140625,143.13999938964844,143.42999267578125,140.84844970703125,319900
2024-07-16,143.85000610351562,145.3000030517578,143.85000610351562,144.55999755859375,141.95811462402344,178800
2024-07-17,144.33999633789062,145.77000427246094,144.33999633789062,144.86000061035156,142.25271606445312,242300
2024-07-18,144.61000061035156,147.25,144.60000610351562,146.27999877929688,143.6471405029297,434200
2024-07-19,146.58999633789062,146.58999633789062,144.66000366210938,145.94000244140625,143.31329345703125,251200
2024-07-22,145.99000549316406,147.55999755859375,145.25,147.19000244140625,144.54080200195312,235700
2024-07-23,147.8699951171875,148.50999450683594,145.6699981689453,146.0399932861328,143.41146850585938,234500
2024-07-24,146.07000732421875,146.6300048828125,143.89999389648438,144.13999938964844,141.54566955566406,250600
2024-07-25,142.8300018310547,144.0500030517578,141.22000122070312,141.49000549316406,139.37850952148438,558100
2024-07-26,143.1300048828125,151.2899932861328,142.35000610351562,146.66000366210938,144.47134399414062,562800
2024-07-29,146.5800018310547,148.35000610351562,145.1699981689453,147.8000030517578,145.59434509277344,390900
2024-07-30,147.3800048828125,147.89999389648438,145.41000366210938,145.75,143.57492065429688,411000
2024-07-31,146.5,148.85000610351562,145.41000366210938,146.97999572753906,144.7865753173828,280600
2024-08-01,146.8800048828125,149.5399932861328,145.42999267578125,147.02999877929688,144.8358154296875,335300
2024-08-02,146.5800018310547,147,143.75,145.69000244140625,143.51583862304688,213500
2024-08-05,143.42999267578125,143.42999267578125,139.47999572753906,140.67999267578125,138.58058166503906,448500
2024-08-06,141.3300018310547,146.08999633789062,141.11000061035156,144.92999267578125,142.7671661376953,476000
2024-08-07,146.00999450683594,147.25999450683594,143.47000122070312,143.60000610351562,141.45701599121094,353600
2024-08-08,144.4600067138672,146.16000366210938,144.4600067138672,145.55999755859375,143.38775634765625,268600
2024-08-09,145.41000366210938,145.41000366210938,143.47000122070312,143.9499969482422,141.8018035888672,263200
2024-08-12,143.97000122070312,144.17999267578125,142.77000427246094,143.2899932861328,141.15162658691406,221100
2024-08-13,143.50999450683594,145.3000030517578,143.10000610351562,144.3699951171875,142.2155303955078,212000
2024-08-14,144.1300048828125,144.80999755859375,143.49000549316406,143.89999389648438,141.75254821777344,115700
2024-08-15,145,147.33999633789062,145,147.00999450683594,144.81613159179688,277500
2024-08-16,146.11000061035156,146.83999633789062,145.61000061035156,146.72000122070312,144.53045654296875,250600
2024-08-19,146.32000732421875,147.72999572753906,145.9199981689453,146.97000122070312,144.77674865722656,191200
2024-08-20,146.97999572753906,148.30999755859375,146.97999572753906,148.11000061035156,145.8997039794922,387200
2024-08-21,148.1699981689453,149.57000732421875,147.4600067138672,149.3300018310547,147.10150146484375,267300
2024-08-22,149.57000732421875,150.39999389648438,148.6699981689453,148.99000549316406,146.76657104492188,200400
2024-08-23,149.66000366210938,150.52999877929688,149.44000244140625,150.44000244140625,148.1949462890625,221400
2024-08-26,150.67999267578125,152.6699981689453,150.13999938964844,150.16000366210938,147.91912841796875,235500
2024-08-27,150.00999450683594,151.5399932861328,149.83999633789062,151.1999969482422,148.94358825683594,208300
2024-08-28,150.92999267578125,151.97000122070312,150.92999267578125,151.5399932861328,149.2785186767578,249000
2024-08-29,152.5500030517578,152.91000366210938,151.2100067138672,152.27999877929688,150.00747680664062,187100
2024-08-30,152.1999969482422,153.44000244140625,151.63999938964844,153.19000244140625,150.90390014648438,178500
2024-09-03,152.11000061035156,152.3800048828125,149.72999572753906,150.0399932861328,147.80088806152344,362400
2024-09-04,149.60000610351562,150.89999389648438,149.60000610351562,150.72999572753906,148.4805908203125,175800
2024-09-05,151.0800018310547,151.75999450683594,149.9499969482422,150.72000122070312,148.47076416015625,200600
2024-09-06,150.3800048828125,153.1199951171875,150.3800048828125,152.3800048828125,150.1060028076172,319100
2024-09-09,152.57000732421875,153.05999755859375,151.44000244140625,151.91000366210938,149.6430206298828,241500
2024-09-10,151.8699951171875,152.7899932861328,151.44000244140625,151.50999450683594,149.2489776611328,158100
2024-09-11,150.7899932861328,150.8800048828125,148.6300048828125,150.83999633789062,148.58897399902344,178000
2024-09-12,150.88999938964844,152.00999450683594,149.97000122070312,151.9600067138672,149.6922607421875,200400
2024-09-13,152.19000244140625,153.00999450683594,151.89999389648438,152.27999877929688,150.00747680664062,138600
2024-09-16,153.0399932861328,153.1699981689453,152.07000732421875,152.99000549316406,150.70689392089844,182900
2024-09-17,154,155.57000732421875,151.8699951171875,153.02999877929688,150.74627685546875,259900
2024-09-18,153.75999450683594,155.49000549316406,152.7100067138672,153.07000732421875,150.7856903076172,214200
2024-09-19,155.02000427246094,158.80999755859375,155.02000427246094,156.89999389648438,154.5585174560547,412400
2024-09-20,156.30999755859375,156.30999755859375,154.47999572753906,155.91000366210938,153.58331298828125,663300
2024-09-23,156.1699981689453,156.91000366210938,154.74000549316406,155.9600067138672,153.63258361816406,315800
2024-09-24,156.17999267578125,157.0800018310547,156.02999877929688,156.6300048828125,154.2925567626953,246200
2024-09-25,157.3000030517578,157.8699951171875,155.8699951171875,157.13999938964844,154.79495239257812,284100
2024-09-26,157.94000244140625,159.05999755859375,157.6999969482422,158.3800048828125,156.01644897460938,371600
2024-09-27,158.67999267578125,161.5500030517578,158.25999450683594,159.88999938964844,157.50392150878906,354300
2024-09-30,159.2899932861328,160.4199981689453,158.92999267578125,160.19000244140625,157.7994384765625,289800
2024-10-01,160.5399932861328,160.5399932861328,159.0500030517578,159.97000122070312,157.5827178955078,192200
2024-10-02,159.86000061035156,160.11000061035156,157.9600067138672,158.75,156.38092041015625,186900
2024-10-03,157.99000549316406,160.4600067138672,156.63999938964844,158.94000244140625,156.56808471679688,367000
2024-10-04,159.94000244140625,161.47000122070312,159.3300018310547,160.5800018310547,158.18362426757812,350500
2024-10-07,159.38999938964844,159.63999938964844,158.00999450683594,158.69000244140625,156.3218231201172,223300
2024-10-08,158.27999877929688,159.02000427246094,157.10000610351562,158.6699981689453,156.30213928222656,205900
2024-10-09,158.35000610351562,160.0500030517578,158.1199951171875,159.6999969482422,157.31674194335938,152600
2024-10-10,158.0500030517578,159.3800048828125,158.0500030517578,159.22000122070312,156.84390258789062,168500
2024-10-11,160.94000244140625,161.9199981689453,160.35000610351562,161.5500030517578,159.13914489746094,194400
2024-10-14,164.99000549316406,167.75999450683594,163.4600067138672,167.19000244140625,164.69496154785156,469700
2024-10-15,167.32000732421875,169.66000366210938,166.49000549316406,168.67999267578125,166.16273498535156,397300
2024-10-16,168.6999969482422,169.1999969482422,165.9199981689453,166.0399932861328,163.5621337890625,330000
2024-10-17,166.97999572753906,168.32000732421875,166.52000427246094,167.88999938964844,165.38453674316406,238200
2024-10-18,169.10000610351562,169.10000610351562,167.77999877929688,168.6300048828125,166.11351013183594,171500
2024-10-21,168.47000122070312,168.49000549316406,166.3000030517578,166.3300018310547,163.8478240966797,217900
2024-10-22,165.72000122070312,166.3699951171875,164.80999755859375,165.80999755859375,163.3355712890625,228500
2024-10-23,166.50999450683594,167.97999572753906,166.16000366210938,167.64999389648438,165.14810180664062,318100
2024-10-24,168.32000732421875,168.3300018310547,166.14999389648438,166.5500030517578,164.50608825683594,547300
2024-10-25,168.9199981689453,169.85000610351562,164.61000061035156,168.91000366210938,166.83712768554688,518900
2024-10-28,169.89999389648438,171.41000366210938,168.75999450683594,169.10000610351562,167.02481079101562,350000
2024-10-29,169.02999877929688,169.49000549316406,167.63999938964844,168.6999969482422,166.62969970703125,338100
2024-10-30,168.35000610351562,170.1999969482422,168.1199951171875,169.02999877929688,166.95565795898438,290300
2024-10-31,169.08999633789062,170.27999877929688,167.86000061035156,167.91000366210938,165.8494110107422,329900
2024-11-01,168.10000610351562,170.99000549316406,167.6199951171875,169.41000366210938,167.33099365234375,316300
2024-11-04,169.6300048828125,170.57000732421875,168.17999267578125,168.25999450683594,166.19509887695312,191800
2024-11-05,167.74000549316406,170.36000061035156,167.74000549316406,170.30999755859375,168.21994018554688,206200
2024-11-06,175.14999389648438,175.14999389648438,172.13999938964844,173.16000366210938,171.03497314453125,264100
2024-11-07,174.1999969482422,175.4600067138672,173.5399932861328,174.7100067138672,172.56594848632812,412300
2024-11-08,174.6999969482422,177.83999633789062,174.49000549316406,175.75999450683594,173.60305786132812,309200
2024-11-11,176.32000732421875,178.02999877929688,175.89999389648438,176.14999389648438,173.98828125,189100
2024-11-12,176.64999389648438,177.24000549316406,174.9499969482422,175.6999969482422,173.54380798339844,179800
2024-11-13,175.5,176.38999938964844,175.0500030517578,175.5,173.34625244140625,168400
2024-11-14,175.14999389648438,175.7899932861328,173.91000366210938,174.10000610351562,171.9634552001953,198200
2024-11-15,172.97000122070312,173.75999450683594,166.1699981689453,166.49000549316406,164.4468231201172,620500
2024-11-18,166.38999938964844,167.82000732421875,164.3300018310547,166.69000244140625,164.6443634033203,384400
2024-11-19,166.4199981689453,167.6699981689453,166.1999969482422,166.89999389648438,164.85179138183594,287600
2024-11-20,167,168.94000244140625,165.64999389648438,168.72999572753906,166.65931701660156,221800
2024-11-21,168.69000244140625,170.22999572753906,167.74000549316406,169.8800048828125,167.7952423095703,205100
2024-11-22,170.17999267578125,172.07000732421875,170.17999267578125,171.50999450683594,169.4052276611328,241600
2024-11-25,172.0500030517578,174.02000427246094,171.74000549316406,172.5,170.38307189941406,270100
2024-11-26,172.86000061035156,172.86000061035156,171.16000366210938,172.0399932861328,169.9287109375,140300
2024-11-27,172.6699981689453,173.8800048828125,171.52000427246094,171.72999572753906,169.62252807617188,167200
2024-11-29,172.58999633789062,173.49000549316406,172.08999633789062,172.9600067138672,170.83743286132812,117300
2024-12-02,172.97999572753906,173.11000061035156,170.83999633789062,172.75999450683594,170.63987731933594,170900
2024-12-03,173.4499969482422,173.4499969482422,171.08999633789062,172.39999389648438,170.28428649902344,160100
2024-12-04,171.88999938964844,172.88999938964844,171.02999877929688,172.58999633789062,170.4719696044922,173400
2024-12-05,172.00999450683594,172.44000244140625,170.52999877929688,171.10000610351562,169.00025939941406,245000
2024-12-06,171.60000610351562,172.64999389648438,170.85000610351562,171.14999389648438,169.04962158203125,209200
2024-12-09,171.55999755859375,173.47000122070312,170.22999572753906,170.7899932861328,168.6940460205078,301700
2024-12-10,170.72000122070312,171.3699951171875,168.19000244140625,170.91000366210938,168.81259155273438,287000
2024-12-11,171.8800048828125,174.10000610351562,171.75,172.30999755859375,170.19540405273438,418600
2024-12-12,171.6699981689453,172.60000610351562,170.77999877929688,171.63999938964844,169.53359985351562,178300
2024-12-13,170.91000366210938,171,169.82000732421875,170.1999969482422,168.11129760742188,153200
2024-12-16,170.13999938964844,170.92999267578125,167.58999633789062,167.6300048828125,165.57284545898438,236100
2024-12-17,166.89999389648438,166.91000366210938,162.83999633789062,163.08999633789062,161.0885467529297,511900
2024-12-18,163.69000244140625,164.4199981689453,157.91000366210938,158.2100067138672,156.2684326171875,468600
2024-12-19,158.50999450683594,161.57000732421875,158.22999572753906,158.8699951171875,156.92034912109375,404700
2024-12-20,158.72000122070312,159.77999877929688,157.47000122070312,158.17999267578125,156.23880004882812,730200
2024-12-23,157.1699981689453,158.89999389648438,156.9600067138672,158.52000427246094,156.5746307373047,194900
2024-12-24,158.77999877929688,159.4199981689453,157.9199981689453,159.35000610351562,157.39443969726562,100500
2024-12-26,158.4199981689453,159.6300048828125,158.4199981689453,158.85000610351562,156.9005889892578,164500
2024-12-27,157.82000732421875,159.5800018310547,157.61000061035156,158.14999389648438,156.20916748046875,145000
2024-12-30,157,157.49000549316406,155,156.72999572753906,154.8065948486328,221700
2024-12-31,157.27999877929688,158.25,156.17999267578125,157.10000610351562,155.1720733642578,317100
2025-01-02,157.64999389648438,158.11000061035156,153.4499969482422,154.16000366210938,152.26812744140625,239400
2025-01-03,154.0399932861328,155.72000122070312,152.8699951171875,155.5,153.59170532226562,250700
2025-01-06,154,154.63999938964844,151.44000244140625,152.9199981689453,151.04335021972656,369000
2025-01-07,155.9199981689453,156.05999755859375,152.60000610351562,153.42999267578125,151.54708862304688,361200
2025-01-08,152.88999938964844,154.25999450683594,152.08999633789062,154.14999389648438,152.25823974609375,228600
2025-01-10,152.72000122070312,154.3000030517578,152.5800018310547,153.4499969482422,151.5668487548828,350800
2025-01-13,152.92999267578125,154.6999969482422,152.92999267578125,153.88999938964844,152.00144958496094,349300
2025-01-14,154.80999755859375,155.4499969482422,153.47999572753906,154.61000061035156,152.71261596679688,196900
2025-01-15,156.1199951171875,156.9199981689453,154.1699981689453,155.55999755859375,153.6509552001953,206100
2025-01-16,155.88999938964844,157.1699981689453,155.30999755859375,156.41000366210938,154.4905242919922,346300
2025-01-17,156.97000122070312,157.9499969482422,155.67999267578125,156.08999633789062,154.17445373535156,231900
2025-01-21,156.72000122070312,160.25999450683594,156.72000122070312,159.8300018310547,157.86854553222656,270900
2025-01-22,159.33999633789062,160.75,158.33999633789062,159.07000732421875,157.11788940429688,280000
2025-01-23,158.4600067138672,159.80999755859375,157.72999572753906,159.6199951171875,157.6611328125,149800
2025-01-24,159.64999389648438,160.47000122070312,157.22000122070312,158.3000030517578,156.3573455810547,329600
2025-01-27,158.25,158.9199981689453,156.64999389648438,158.4600067138672,156.515380859375,317000
2025-01-28,157.57000732421875,160.35000610351562,157.57000732421875,158.4199981689453,156.47584533691406,204300
2025-01-29,158.77999877929688,158.82000732421875,156.6199951171875,157.11000061035156,155.18194580078125,265800
2025-01-30,157.82000732421875,158.67999267578125,156.5800018310547,158.1300048828125,156.18942260742188,274200
2025-01-31,157.89999389648438,159.38999938964844,156.75999450683594,157.14999389648438,155.221435546875,834100
2025-02-03,154.5800018310547,156.75,154.13999938964844,155.97999572753906,154.06581115722656,364600
2025-02-04,156.08999633789062,158.4600067138672,156.08999633789062,157.6999969482422,155.76467895507812,302400
2025-02-05,158.27999877929688,159.66000366210938,157.77999877929688,158.32000732421875,156.82460021972656,262600
2025-02-06,159.83999633789062,159.83999633789062,155.3699951171875,156.4499969482422,154.97222900390625,446600
2025-02-07,157.6199951171875,157.89999389648438,142.0399932861328,143.17999267578125,141.82757568359375,1221500
2025-02-10,144.25999450683594,144.60000610351562,140.89999389648438,143.27999877929688,141.9266357421875,621900
2025-02-11,142.27000427246094,143.07000732421875,140.25999450683594,142.2899932861328,140.9459991455078,377300
2025-02-12,140.97000122070312,143.49000549316406,139.92999267578125,141.6999969482422,140.36155700683594,423500
2025-02-13,142.75,143.77999877929688,141.4600067138672,142.77000427246094,141.4214630126953,665900
2025-02-14,143.69000244140625,145.30999755859375,142.72000122070312,144.7899932861328,143.42237854003906,512800
2025-02-18,144.7899932861328,147.2899932861328,143.89999389648438,146.89999389648438,145.512451171875,489600
2025-02-19,146.13999938964844,147.49000549316406,145.61000061035156,147.0399932861328,145.651123046875,331000
2025-02-20,146.97000122070312,147.4199981689453,145.9199981689453,146.67999267578125,145.29452514648438,283100
2025-02-21,147.02999877929688,147.38999938964844,145.1999969482422,146.33999633789062,144.95774841308594,451900
2025-02-24,146.17999267578125,147.2899932861328,144.36000061035156,145.61000061035156,144.23463439941406,353300
2025-02-25,145.8800048828125,148.3300018310547,145.72000122070312,147.7100067138672,146.31480407714844,336700
2025-02-26,146.64999389648438,149.17999267578125,146.6199951171875,146.63999938964844,145.25489807128906,735600
2025-02-27,146.22999572753906,147.17999267578125,145.36000061035156,145.6300048828125,144.2544403076172,262800
2025-02-28,146.16000366210938,146.9499969482422,144.6300048828125,146.75,145.36387634277344,348700
2025-03-03,146.97000122070312,148.83999633789062,145.69000244140625,146.58999633789062,145.2053680419922,394100
2025-03-04,145.5399932861328,147.9499969482422,145.13999938964844,145.94000244140625,144.56153869628906,490100
2025-03-05,146.0500030517578,148.85000610351562,146.0500030517578,148.44000244140625,147.0379180908203,445100
2025-03-06,147.55999755859375,151.5,147.05999755859375,151.14999389648438,149.72230529785156,471700
2025-03-07,150.50999450683594,153.36000061035156,149.17999267578125,152.77999877929688,151.3369140625,480200
2025-03-10,152.07000732421875,154,150.24000549316406,150.57000732421875,149.14779663085938,391100
2025-03-11,150.33999633789062,150.55999755859375,147.27000427246094,147.88999938964844,146.49310302734375,304000
2025-03-12,148.24000549316406,148.24000549316406,145.55999755859375,146.02999877929688,144.65066528320312,299700
2025-03-13,146.41000366210938,147.1999969482422,143.75999450683594,144.75999450683594,143.39266967773438,238400
2025-03-14,145.22999572753906,146.88999938964844,144.5399932861328,146.66000366210938,145.27471923828125,223600
2025-03-17,146.50999450683594,148,145.86000061035156,147.83999633789062,146.44357299804688,225200
2025-03-18,147.38999938964844,147.52999877929688,145.77999877929688,146.3000030517578,144.91812133789062,219900
2025-03-19,146.33999633789062,147.4600067138672,145.47000122070312,146.97999572753906,145.59170532226562,279600
2025-03-20,146.1300048828125,147.4199981689453,143.72999572753906,145.1999969482422,143.82852172851562,332800
2025-03-21,144,145.4600067138672,142.36000061035156,144.82000732421875,143.4521026611328,601900
2025-03-24,145.75,148.17999267578125,144.91000366210938,147.99000549316406,146.59217834472656,463800
2025-03-25,148.49000549316406,149.22999572753906,145.92999267578125,147.2100067138672,145.8195343017578,325200
2025-03-26,147.0500030517578,148.6999969482422,146.3000030517578,148.55999755859375,147.1567840576172,630400
2025-03-27,148.27999877929688,149.88999938964844,147.02999877929688,149.35000610351562,147.9393310546875,312700
2025-03-28,149.2899932861328,150,145.75999450683594,146.92999267578125,145.5421600341797,239800
2025-03-31,146.5800018310547,149.08999633789062,146.10000610351562,148.3800048828125,146.97848510742188,372500
2025-04-01,148.8800048828125,150.02999877929688,147.3800048828125,149.10000610351562,147.69168090820312,240000
2025-04-02,148,151.1300048828125,148,150.52999877929688,149.108154296875,247600
2025-04-03,146.75999450683594,150.0500030517578,146.4600067138672,148.6699981689453,147.26573181152344,352900
2025-04-04,145.22000122070312,147.9600067138672,140.0399932861328,140.17999267578125,138.85592651367188,531600
2025-04-07,136.33999633789062,142.1199951171875,130.85000610351562,134.64999389648438,133.37815856933594,629900
2025-04-08,137.3800048828125,139.30999755859375,131.27999877929688,133.66000366210938,132.39752197265625,473800
2025-04-09,133.17999267578125,144.4199981689453,131.32000732421875,143.75,142.39219665527344,491800
2025-04-10,140,143.3699951171875,137.57000732421875,140.75999450683594,139.43045043945312,309000
2025-04-11,140.8699951171875,144.7100067138672,139.74000549316406,144.11000061035156,142.7488250732422,203000
2025-04-14,145.8000030517578,146.39999389648438,143.7899932861328,145.7899932861328,144.41293334960938,249300
2025-04-15,146.10000610351562,146.5399932861328,143.77000427246094,143.94000244140625,142.58042907714844,250700
2025-04-16,144.05999755859375,145.82000732421875,142.57000732421875,145,143.63040161132812,307700
2025-04-17,145.39999389648438,145.75999450683594,140.7100067138672,143.8300018310547,142.47145080566406,390600
2025-04-21,143.3000030517578,144.0500030517578,141.10000610351562,142.5800018310547,141.2332763671875,291600
2025-04-22,144.5,146.82000732421875,143.58999633789062,146.02000427246094,144.64077758789062,217800
2025-04-23,147.8699951171875,149.32000732421875,147.22000122070312,148.0500030517578,146.65159606933594,537000
2025-04-24,147.92999267578125,152,145.4600067138672,151.4600067138672,150.02938842773438,424500
2025-04-25,150.85000610351562,153,147.57000732421875,149.05999755859375,147.65206909179688,220500
2025-04-28,149.8000030517578,151.02999877929688,148.27999877929688,149.6999969482422,148.2860107421875,235200
2025-04-29,149.75999450683594,151.97999572753906,149.00999450683594,150.3000030517578,148.88034057617188,359900
2025-04-30,149.07000732421875,149.99000549316406,147.2100067138672,149.9499969482422,148.5336456298828,556200
2025-05-01,148.4499969482422,150.52999877929688,146.9600067138672,148.27999877929688,147.321533203125,445300
2025-05-02,152.99000549316406,153,147.7899932861328,152,151.01748657226562,431600
2025-05-05,151.42999267578125,153.22000122070312,150.8800048828125,151.47999572753906,150.50083923339844,267600
2025-05-06,150.25,152.0399932861328,149.4199981689453,150.9199981689453,149.9444580078125,312000
2025-05-07,151.8800048828125,153.14999389648438,150.6199951171875,151.38999938964844,150.41143798828125,318400
2025-05-08,151.7899932861328,154.57000732421875,151.24000549316406,153.36000061035156,152.36868286132812,302500
2025-05-09,153.91000366210938,154.3000030517578,152.94000244140625,153.32000732421875,152.32894897460938,231600
2025-05-12,155.7899932861328,156.58999633789062,153.6999969482422,155.52000427246094,154.51473999023438,352500
2025-05-13,156.30999755859375,156.30999755859375,153.1999969482422,153.63999938964844,152.64688110351562,339400
2025-05-14,153.6199951171875,153.6199951171875,150.97000122070312,152.47999572753906,151.494384765625,350100
2025-05-15,152.35000610351562,155.47999572753906,152.35000610351562,154.9499969482422,153.9484100341797,278100
2025-05-16,155.17999267578125,157.14999389648438,154.58999633789062,157.00999450683594,155.99508666992188,278600
2025-05-19,156.36000061035156,158.33999633789062,156.30999755859375,158.0800018310547,157.0581817626953,185400
2025-05-20,160.25999450683594,160.25999450683594,157.91000366210938,158.52999877929688,157.50527954101562,388100
2025-05-21,156.86000061035156,157.64999389648438,155.8300018310547,156.4499969482422,155.43870544433594,319800
2025-05-22,156.36000061035156,157.25999450683594,155.55999755859375,156.64999389648438,155.63742065429688,278900
2025-05-23,155.1199951171875,156.17999267578125,154.25999450683594,155.94000244140625,154.93202209472656,260500
2025-05-27,157.02999877929688,158.44000244140625,156.69000244140625,158.16000366210938,157.13768005371094,352800
2025-05-28,158.16000366210938,158.83999633789062,157.25999450683594,157.39999389648438,156.382568359375,364400
2025-05-29,157.8300018310547,158.6699981689453,156.82000732421875,158.3300018310547,157.30657958984375,232100
2025-05-30,158.24000549316406,158.77999877929688,156.5399932861328,158.39999389648438,157.37611389160156,335100
2025-06-02,157.5399932861328,159.07000732421875,155.25999450683594,156.91000366210938,155.895751953125,349600
2025-06-03,156.17999267578125,157.44000244140625,156,156.25999450683594,155.24993896484375,397800
2025-06-04,156.49000549316406,156.52000427246094,150.2899932861328,150.41000366210938,149.43775939941406,831900
2025-06-05,151.5800018310547,153.33999633789062,149.0500030517578,152.49000549316406,151.5043182373047,482400
2025-06-06,154.3699951171875,154.47999572753906,152.2100067138672,153.30999755859375,152.3190155029297,264700
2025-06-09,152.7100067138672,153.17999267578125,151.36000061035156,151.60000610351562,150.6200714111328,388400
2025-06-10,152.16000366210938,153,150.86000061035156,152.52999877929688,151.5440673828125,323500
2025-06-11,153,153.58999633789062,151.60000610351562,151.9199981689453,150.93800354003906,380800
2025-06-12,151.41000366210938,154.6199951171875,151.41000366210938,154.35000610351562,153.35231018066406,337200
2025-06-13,153,153.72000122070312,150.72999572753906,151.16000366210938,150.18292236328125,361200
2025-06-16,151.24000549316406,152.89999389648438,151.1199951171875,151.69000244140625,150.70948791503906,346200
2025-06-17,150.66000366210938,151.25999450683594,149.1300048828125,149.4499969482422,148.4839630126953,379700
2025-06-18,149.1199951171875,150.72999572753906,149.1199951171875,149.6999969482422,148.7323455810547,383200
2025-06-20,150.2899932861328,150.77000427246094,148.99000549316406,150.3000030517578,149.32847595214844,570500
2025-06-23,149.49000549316406,153.94000244140625,149.49000549316406,153.7899932861328,152.79591369628906,356500
2025-06-24,154.57000732421875,154.57000732421875,153.17999267578125,153.8699951171875,152.87538146972656,246600
2025-06-25,153.86000061035156,154.52999877929688,152.77000427246094,153.92999267578125,152.93499755859375,264700
2025-06-26,154.52999877929688,155.5800018310547,153.1199951171875,154.47999572753906,153.4814453125,658200
2025-06-27,154.66000366210938,156.11000061035156,154.22999572753906,155.82000732421875,154.8127899169922,643100
2025-06-30,156.02999877929688,156.5,154.61000061035156,156.42999267578125,155.41883850097656,315500
2025-07-01,156.42999267578125,159.8000030517578,155.9600067138672,159.00999450683594,157.98216247558594,338300
2025-07-02,159.02000427246094,160.52999877929688,158.64999389648438,160.32000732421875,159.28370666503906,293500
2025-07-03,160.60000610351562,161.36000061035156,159.82000732421875,161.0399932861328,159.99903869628906,235100
2025-07-07,160.9499969482422,162.3699951171875,160.5500030517578,160.9600067138672,159.91957092285156,313900
2025-07-08,160.89999389648438,162.5800018310547,159.85000610351562,160.0500030517578,159.0154571533203,342700
2025-07-09,159.92999267578125,160.00999450683594,158.10000610351562,159.72999572753906,158.697509765625,252800
2025-07-10,159.19000244140625,160.36000061035156,158.3300018310547,158.3300018310547,157.30657958984375,361600
2025-07-11,158.55999755859375,158.55999755859375,156.6300048828125,157.89999389648438,156.87933349609375,292000
2025-07-14,157.13999938964844,158.94000244140625,156.69000244140625,157.55999755859375,156.54153442382812,276600
2025-07-15,157.74000549316406,158,154.07000732421875,154.16000366210938,153.1635284423828,254200
2025-07-16,153.9199981689453,155.61000061035156,153.5500030517578,154.97999572753906,153.9782257080078,261900
2025-07-17,154.74000549316406,156.41000366210938,154.50999450683594,156.02999877929688,155.0214385986328,397700
2025-07-18,156.85000610351562,157.2100067138672,154.9199981689453,156.3800048828125,155.36917114257812,243100
2025-07-21,156.4199981689453,156.6699981689453,155.24000549316406,155.4499969482422,154.44517517089844,205900
2025-07-22,156.11000061035156,159.36000061035156,155.22999572753906,159.1699981689453,158.14112854003906,449900
2025-07-23,160.07000732421875,161.85000610351562,159.13999938964844,161.66000366210938,160.61505126953125,450500
2025-07-24,160.9600067138672,164.27999877929688,159.7899932861328,161.82000732421875,161.22279357910156,431900
2025-07-25,162.0500030517578,163.08999633789062,160.77999877929688,160.99000549316406,160.39585876464844,296300
2025-07-28,161.1999969482422,161.97999572753906,158.16000366210938,158.6999969482422,158.1143035888672,308500
2025-07-29,159.0500030517578,159.60000610351562,157.22000122070312,158.82000732421875,158.23387145996094,388200
2025-07-30,158.8000030517578,158.92999267578125,154.9199981689453,156.7899932861328,156.2113494873047,580700
2025-07-31,155.77999877929688,157.35000610351562,155.17999267578125,157.13999938964844,156.56005859375,679700
2025-08-01,156.97000122070312,158.1199951171875,141.08999633789062,141.35000610351562,140.82833862304688,1012300
2025-08-04,143.1199951171875,143.1199951171875,137.0800018310547,139.1300048828125,138.6165313720703,839000
2025-08-05,139.33999633789062,141.07000732421875,137.69000244140625,140.22000122070312,139.70249938964844,540800
2025-08-06,140.30999755859375,140.75999450683594,137.5500030517578,138.5399932861328,138.02870178222656,515300
2025-08-07,139.8000030517578,141.49000549316406,138.91000366210938,140.49000549316406,139.9715118408203,564000
2025-08-08,140.69000244140625,142.0500030517578,140.5800018310547,140.75,140.2305450439453,428700
2025-08-11,141.3300018310547,141.6199951171875,139.1999969482422,139.8699951171875,139.35379028320312,349500
2025-08-12,140.22000122070312,141.08999633789062,139.22999572753906,139.47999572753906,138.96522521972656,286100
2025-08-13,139.69000244140625,141.44000244140625,139.25,141.42999267578125,140.9080352783203,729900
2025-08-14,140.19000244140625,140.19000244140625,136.44000244140625,138.33999633789062,137.82943725585938,875800
2025-08-15,138.36000061035156,138.9499969482422,137.8699951171875,138.72000122070312,138.20803833007812,770500
2025-08-18,138.88999938964844,139.57000732421875,137.35000610351562,137.88999938964844,137.381103515625,529500
2025-08-19,138.27000427246094,140.52000427246094,138.27000427246094,139.58999633789062,139.0748291015625,333100
2025-08-20,139.91000366210938,141.25,139.25999450683594,141.17999267578125,140.65895080566406,519200
2025-08-21,140.6300048828125,141.89999389648438,140.24000549316406,140.63999938964844,140.12095642089844,270400
2025-08-22,141.25999450683594,143.3300018310547,141.19000244140625,141.42999267578125,140.9080352783203,356500
2025-08-25,140.97000122070312,141.61000061035156,138.9600067138672,139.55999755859375,139.04493713378906,245800
2025-08-26,139.07000732421875,140.16000366210938,138.00999450683594,139.7100067138672,139.19439697265625,442900
2025-08-27,139.08999633789062,140.57000732421875,139.02999877929688,139.44000244140625,138.92538452148438,729100
2025-08-28,140.1699981689453,140.1699981689453,137.39999389648438,138.88999938964844,138.37741088867188,320800
2025-08-29,139.1699981689453,139.8699951171875,138.35000610351562,139.27000427246094,138.75601196289062,370700
2025-09-02,137.4199981689453,138.52999877929688,136.1699981689453,136.41000366210938,135.9065704345703,310600
2025-09-03,136.0800018310547,136.17999267578125,134.44000244140625,135.22000122070312,134.72096252441406,382300
2025-09-04,136.35000610351562,138.47999572753906,135.0399932861328,138.4600067138672,137.94900512695312,401800
2025-09-05,139.02000427246094,140.82000732421875,137.6300048828125,138.6199951171875,138.1083984375,440800
2025-09-08,138.58999633789062,140,137.67999267578125,138.3000030517578,137.7895965576172,616100
2025-09-09,138.25999450683594,139.47999572753906,135.10000610351562,137.0500030517578,136.54420471191406,637100
2025-09-10,136.1300048828125,137.4600067138672,134.85000610351562,136.25,135.74716186523438,685100
2025-09-11,136.75,138.27999877929688,135.8699951171875,137.10000610351562,136.59402465820312,477500
2025-09-12,136.6199951171875,137.0500030517578,135.22000122070312,135.22999572753906,134.7309112548828,261300
2025-09-15,135.97000122070312,136.1699981689453,134.6300048828125,134.85000610351562,134.35232543945312,298000
2025-09-16,134.7899932861328,135.4199981689453,134.10000610351562,135.2100067138672,134.71099853515625,474800
2025-09-17,135.4199981689453,137.07000732421875,134.19000244140625,134.64999389648438,134.15306091308594,377400
2025-09-18,134.89999389648438,135.50999450683594,134.07000732421875,134.5,134.0036163330078,254800
2025-09-19,134.66000366210938,135.10000610351562,133.33999633789062,134.44000244140625,133.94383239746094,877200
2025-09-22,134.1199951171875,134.94000244140625,132.6699981689453,132.72000122070312,132.2301788330078,402100
2025-09-23,133.00999450683594,133.9499969482422,131.97000122070312,132.02000427246094,131.53277587890625,319700
2025-09-24,132,133.30999755859375,131.33999633789062,131.5,131.01467895507812,353300
2025-09-25,131.5,132.52000427246094,130.27000427246094,130.82000732421875,130.3372039794922,388700
2025-09-26,131.3300018310547,132.42999267578125,130.9600067138672,132.2899932861328,131.8017578125,274400
2025-09-29,132.39999389648438,132.67999267578125,131.36000061035156,132.27000427246094,131.78184509277344,540600
2025-09-30,131.7100067138672,133.75999450683594,131.7100067138672,133.66000366210938,133.16671752929688,310400
2025-10-01,133.3300018310547,134.36000061035156,132.30999755859375,134.13999938964844,133.6449432373047,310100
2025-10-02,133.66000366210938,134.38999938964844,132.9600067138672,133.17999267578125,132.6884765625,398500
2025-10-03,132.47000122070312,133.5800018310547,132.42999267578125,133.22000122070312,132.72833251953125,402000
2025-10-06,132.88999938964844,133.1999969482422,131.41000366210938,131.8800048828125,131.39329528808594,447100
2025-10-07,132.11000061035156,132.50999450683594,129.80999755859375,130.58999633789062,130.10804748535156,438800
2025-10-08,131.17999267578125,132.00999450683594,130.25999450683594,131.61000061035156,131.12428283691406,361300
2025-10-09,131.6999969482422,132.83999633789062,130.1999969482422,130.61000061035156,130.1279754638672,554200
2025-10-10,130.94000244140625,132.00999450683594,129.88999938964844,130.92999267578125,130.44677734375,426000
2025-10-13,130.99000549316406,132.35000610351562,130.16000366210938,130.22000122070312,129.73941040039062,311400
2025-10-14,130.0399932861328,131.05999755859375,129.0399932861328,129.8000030517578,129.3209686279297,337400
2025-10-15,129.8000030517578,130.38999938964844,127.86000061035156,128.10000610351562,127.62724304199219,438300
2025-10-16,128.44000244140625,129.5,127.8499984741211,129.16000366210938,128.68331909179688,352700
2025-10-17,129.16000366210938,130.10000610351562,128.85000610351562,129.33999633789062,128.86265563964844,339700
2025-10-20,129.61000061035156,130.08999633789062,128.02000427246094,130,129.5202178955078,240500
2025-10-21,130.61000061035156,131.77000427246094,129.1199951171875,130.57000732421875,130.08811950683594,311600
2025-10-22,130.64999389648438,132.11000061035156,129.97999572753906,130.05999755859375,129.5800018310547,357500
2025-10-23,129.74000549316406,131.52999877929688,129.66000366210938,130.77000427246094,130.77000427246094,378600
2025-10-24,130.75,130.88999938964844,128.5399932861328,128.8800048828125,128.8800048828125,489300